1559931445.00
64.000000
-0.00
-0.00
-0.00
-0.00
-0.00
-0.00
-0.00
-0.00
-0.00
-0.00
0.00
0.01
0.01
-0.00
-0.03
-0.05
-0.05
0.00
0.13
0.36
0.66
1.01
1.37
1.72
2.06
2.40
2.79
3.24
3.80
4.42
5.06
5.66
6.20
6.68
7.15
7.68
8.31
9.14
10.09
11.04
11.88
12.56
13.14
13.76
14.65
15.96
17.91
20.32
22.90
25.38
27.58
29.57
31.68
34.32
37.81
42.54
48.15
54.10
59.83
64.97
69.58
74.14
79.34
85.71
93.76
103.00
112.62
121.73
129.77
136.75
143.30
150.75
157.77
166.64
177.95
191.79
206.97
220.57
228.25
225.36
208.53
176.87
132.76
80.05
23.07
-34.94
-92.44
-149.16
-205.23
-260.37
-313.74
-363.88
-409.83
-450.90
-486.49
-515.72
-537.19
-549.16
-549.88
-538.26
-514.06
-478.49
-433.64
-382.16
-326.68
-269.44
-212.17
-156.13
-102.35
-51.70
-5.16
36.40
72.33
102.34
126.57
145.55
159.97
170.54
177.88
182.40
184.37
184.04
181.67
177.61
172.27
166.06
159.32
152.32
145.19
138.01
130.80
123.60
116.44
109.40
102.54
95.96
89.70
83.81
78.32
73.23
68.50
64.12
60.07
56.34
52.96
49.97
47.40
45.28
43.55
42.16
41.01
40.04
39.20
38.49
37.89
37.36
36.73
35.76
34.11
31.50
27.76
22.92
17.21
10.97
4.55
-1.78
-8.00
-14.20
-20.54
-27.05
-33.49
-39.41
-44.24
-47.54
-49.20
-49.56
-49.26
-49.05
-49.41
-50.36
-51.44
-52.06
-51.65
-50.07
-47.72
-45.29
-43.62
-43.47
-45.38
-49.48
-55.19
-61.01
-64.50
-63.03
-54.57
-38.82
-17.64
5.37
26.15
41.42
49.71
51.47
48.44
42.76
36.29
30.19
24.87
20.38
16.64
13.74
12.03
11.92
13.69
16.99
20.87
24.17
25.99
26.29
25.70
25.32
25.70
26.44
26.40
24.28
19.56
12.76
5.29
-1.24
-5.92
-8.97
-11.18
-13.24
-14.96
-15.06
-12.03
-5.18
4.66
15.20
23.53
27.49
26.44
21.37
14.15
6.52
-0.60
-7.06
-13.20
-19.10
-24.27
-27.66
-28.26
-25.45
-19.55
-11.78
-3.85
2.65
6.80
8.55
8.61
7.92
7.23
6.75
6.22
5.28
3.77
2.05
0.77
0.59
1.68
3.51
5.10
5.50
4.35
2.17
0.16
-0.38
1.31
4.95
9.32
12.81
14.16
13.12
10.42
7.33
4.82
3.08
1.46
-0.97
-4.63
-9.04
-12.94
-15.01
-14.82
-13.16
-11.63
-11.71
-13.76
-16.82
-19.18
-19.44
-17.45
-14.21
-11.12
-9.11
-8.01
-6.83
-4.51
-0.76
3.86
8.31
11.86
14.55
16.94
19.68
22.78
25.58
26.98
26.22
23.25
18.83
14.11
10.11
7.34
5.83
5.10
4.41
3.05
0.56
-2.92
-6.82
-10.21
-12.17
-12.37
-11.14
-9.36
-8.00
-7.59
-8.00
-8.49
-8.41
-7.53
-6.33
-5.68
-6.19
-7.86
-9.95
-11.47
-11.79
-11.07
-10.11
-9.95
-11.11
-13.25
-15.23
-15.80
-14.19
-10.62
-6.13
-2.08
0.44
1.20
0.79
0.32
0.88
2.93
6.20
9.89
13.06
15.14
16.21
16.79
17.39
18.04
18.16
17.03
14.31
10.52
6.93
4.93
5.16
7.05
9.17
9.90
8.41
5.14
1.48
-1.16
-2.23
-2.41
-2.97
-4.78
-7.69
-10.45
-11.67
-10.64
-7.80
-4.53
-2.16
-1.18
-0.98
-0.35
1.72
5.28
9.48
13.10
15.14
15.44
14.45
12.99
11.77
11.20
11.28
11.51
11.06
8.89
4.31
-2.52
-10.37
-17.11
-20.62
-19.78
-14.91
-7.66
-0.16
6.02
10.34
13.14
14.68
14.65
12.07
6.17
-2.89
-13.53
-23.24
-29.72
-31.89
-30.35
-26.82
-23.10
-20.03
-17.13
-13.13
-7.10
0.74
8.96
15.56
19.02
19.04
16.53
12.98
9.66
7.17
5.18
3.06
0.44
-2.32
-4.23
-4.13
-1.40
3.35
8.60
12.36
13.30
11.45
8.27
6.00
6.31
9.35
13.59
16.51
16.02
11.62
4.53
-3.04
-8.96
-12.36
-13.56
-13.56
-13.25
-12.75
-11.62
-9.47
-6.53
-3.70
-2.22
-2.96
-5.95
-10.44
-15.16
-18.91
-20.72
-20.26
-17.53
-13.13
-8.01
-3.30
0.10
1.89
2.42
2.26
1.91
1.33
0.12
-1.94
-4.59
-7.06
-8.44
-8.42
-7.62
-7.12
-7.89
-9.94
-12.19
-13.07
-11.45
-7.57
-2.94
0.31
0.79
-1.49
-5.02
-7.73
-8.14
-6.09
-2.69
0.48
2.32
2.71
2.45
2.60
3.85
5.98
8.15
9.39
9.42
8.84
8.97
11.03
15.40
21.20
26.44
28.99
27.49
22.09
14.29
6.34
0.15
-3.30
-4.06
-2.76
0.02
4.07
9.37
15.81
22.75
29.06
33.40
34.76
32.77
27.86
21.04
13.54
6.64
1.27
-2.01
-3.14
-2.45
-0.54
1.83
4.01
5.56
6.36
6.54
6.34
5.93
5.38
4.50
3.10
1.10
-1.47
-4.31
-7.20
-9.81
-11.79
-12.78
-12.28
-9.91
-5.67
-0.30
4.81
8.00
8.21
5.57
1.33
-2.81
-5.50
-6.41
-6.14
-5.55
-5.00
-4.24
-2.77
-0.50
1.88
3.10
2.03
-1.59
-6.85
-12.19
-16.19
-18.24
-18.65
-18.19
-17.50
-16.61
-15.13
-12.87
-10.39
-9.04
-10.36
-15.07
-22.37
-29.88
-34.58
-34.06
-27.66
-17.05
-5.41
3.82
8.26
7.55
3.09
-2.72
-7.74
-10.83
-12.09
-12.55
-13.44
-15.66
-19.39
-23.85
-27.70
-29.38
-27.71
-22.50
-14.61
-5.66
2.53
8.61
11.89
12.33
10.25
6.30
1.42
-3.14
-5.95
-5.82
-2.24
4.28
12.37
20.42
27.31
32.93
38.04
43.77
50.87
59.25
67.99
75.68
81.08
83.57
83.29
81.03
77.64
73.60
68.83
62.86
55.19
45.85
35.21
24.04
12.92
2.23
-7.96
-17.79
-27.05
-35.07
-40.62
-42.59
-40.48
-34.96
-27.75
-20.87
-15.92
-13.34
-12.71
-13.31
-14.74
-17.15
-20.81
-25.63
-30.77
-34.84
-36.57
-35.30
-31.57
-26.72
-22.37
-19.81
-19.63
-21.63
-25.03
-28.68
-31.46
-32.52
-31.40
-28.20
-23.47
-18.05
-12.86
-8.78
-6.50
-6.34
-8.27
-11.80
-16.22
-20.65
-24.22
-26.17
-25.90
-23.31
-18.68
-12.65
-5.94
0.95
7.91
15.25
23.16
31.50
39.53
46.13
50.27
51.50
49.96
46.26
41.03
34.59
27.01
18.42
9.26
0.51
-6.67
-11.46
-13.65
-13.78
-12.88
-12.06
-12.09
-13.39
-16.23
-20.86
-27.61
-36.75
-48.03
-60.43
-72.04
-80.25
-82.45
-76.91
-63.90
-46.04
-27.72
-13.75
-7.38
-8.91
-15.65
-23.06
-26.60
-23.60
-13.74
1.25
18.50
35.02
48.09
55.46
55.65
48.31
34.62
16.93
-2.01
-19.94
-35.82
-49.76
-62.30
-73.77
-83.83
-91.63
-96.13
-96.53
-92.17
-82.80
-68.82
-51.32
-32.23
-13.96
1.12
11.52
15.39
12.03
1.66
-14.91
-36.02
-59.57
-83.17
-104.23
-120.11
-128.06
-126.18
-113.77
-91.49
-60.74
-23.30
19.22
66.23
118.33
175.02
236.03
301.02
366.15
427.69
481.33
521.64
541.82
534.76
495.36
423.91
327.39
218.29
111.35
18.73
-53.08
-103.71
-136.58
-156.21
-166.02
-168.33
-165.61
-160.96
-158.20
-160.05
-166.04
-171.83
-170.69
-156.14
-125.45
-81.38
-31.41
14.42
46.84
60.24
53.91
31.72
0.56
-31.94
-59.49
-78.21
-87.28
-88.39
-84.45
-78.63
-73.39
-70.21
-69.54
-70.59
-71.01
-67.63
-57.80
-40.95
-19.61
1.14
15.66
20.09
14.11
0.85
-14.77
-28.41
-37.82
-43.19
-46.26
-48.73
-51.56
-54.83
-58.37
-62.19
-66.17
-68.91
-67.42
-58.00
-39.04
-13.26
12.56
30.39
35.78
30.59
22.36
19.92
28.20
45.47
64.77
78.73
84.00
82.66
79.94
80.27
84.24
88.78
89.80
85.15
76.20
67.16
62.45
64.26
70.95
77.90
80.14
75.32
63.93
49.27
34.80
21.79
9.03
-6.10
-25.29
-47.76
-70.44
-90.17
-105.32
-116.22
-123.90
-127.81
-124.97
-111.35
-85.33
-50.29
-14.75
11.46
22.19
18.55
8.67
3.25
9.08
25.36
44.50
57.41
59.27
51.95
41.95
35.63
35.13
37.97
39.99
38.95
36.30
35.72
39.85
48.15
57.61
64.58
67.29
66.76
65.78
67.24
72.46
80.90
91.20
101.96
111.87
119.65
124.26
125.31
123.56
120.11
115.14
108.82
101.39
93.10
83.96
73.68
61.69
50.43
41.19
32.14
21.34
7.92
-7.79
-24.98
-42.84
-60.56
-76.98
-91.61
-108.15
-129.48
-155.78
-184.45
-212.27
-237.14
-258.58
-276.83
-292.94
-312.72
-339.70
-372.85
-407.17
-437.19
-459.50
-473.42
-479.31
-448.10
-367.91
-249.60
-120.61
-5.25
85.87
153.06
200.59
234.00
257.60
269.53
268.66
257.12
240.05
222.52
207.43
193.78
181.32
169.54
154.19
132.68
105.70
76.66
49.12
29.94
18.59
13.40
12.63
12.36
10.02
5.36
-0.02
-4.24
-6.32
-7.01
-6.59
-5.26
-4.55
-5.42
-7.78
-10.72
-13.24
-14.81
-15.97
-16.76
-16.94
-16.98
-17.16
-17.27
-16.74
-14.98
-11.64
-7.04
-2.55
2.87
9.24
16.33
23.85
31.51
39.01
46.05
52.17
57.32
61.91
65.90
69.22
72.02
74.47
76.65
78.54
79.90
80.81
81.89
83.25
84.53
85.74
87.07
88.57
89.90
90.50
90.16
89.45
88.65
86.78
83.61
79.28
73.74
65.99
54.19
36.13
14.78
-8.30
-34.12
-62.47
-92.10
-121.59
-150.58
-180.15
-212.26
-248.89
-291.66
-343.02
-399.91
-453.83
-493.89
-511.77
-505.05
-477.71
-437.89
-373.77
-288.51
-194.95
-108.39
-37.98
14.15
49.49
70.73
81.38
85.21
82.18
74.11
63.77
54.41
47.42
42.31
37.95
33.80
30.26
24.62
16.92
8.57
2.36
-0.24
0.35
3.06
7.22
12.75
17.11
21.06
26.55
37.38
56.43
85.52
122.14
164.76
212.65
262.89
315.65
358.68
381.67
378.34
349.56
303.04
248.24
206.20
177.02
159.11
151.64
156.95
178.33
209.52
246.10
281.59
307.74
314.39
296.61
254.60
194.59
124.74
51.49
-21.35
-93.26
-163.99
-232.07
-290.38
-329.91
-343.13
-328.92
-293.65
-247.43
-200.84
-160.96
-131.05
-110.75
-99.62
-96.31
-99.55
-108.31
-120.69
-134.29
-146.31
-154.92
-159.12
-159.27
-156.24
-151.39
-145.86
-139.53
-131.56
-121.03
-107.80
-92.60
-76.92
-61.70
-47.60
-34.55
-21.56
-7.24
9.75
30.28
55.15
81.12
107.06
132.61
157.83
183.10
209.19
237.58
270.13
308.08
350.50
393.96
431.43
453.94
453.85
428.03
379.70
316.95
249.72
186.06
131.18
86.04
48.32
14.21
-20.03
-57.08
-99.41
-149.10
-207.03
-270.13
-331.65
-382.62
-414.37
-421.53
-403.26
-364.15
-312.02
-254.53
-194.67
-130.74
-59.03
22.58
109.46
194.61
268.01
320.54
339.43
319.78
269.56
207.03
150.34
108.43
80.57
60.60
42.67
24.06
5.38
-11.20
-25.09
-38.04
-53.24
-72.99
-98.61
-131.09
-168.09
-208.78
-253.54
-303.37
-357.85
-413.11
-460.88
-491.26
-496.77
-475.77
-433.00
-377.44
-318.43
-262.27
-210.89
-161.72
-110.85
-55.04
6.37
71.44
136.26
195.50
243.86
276.32
291.21
290.74
280.44
267.20
256.19
248.82
241.80
229.57
205.09
166.21
116.60
64.78
20.31
-10.76
-28.14
-36.68
-41.81
-50.09
-62.89
-78.49
-93.61
-105.67
-113.42
-116.17
-113.05
-100.70
-79.52
-49.09
-10.56
33.99
82.62
134.56
189.69
236.23
284.59
327.99
360.12
374.93
368.84
341.99
297.91
242.05
179.13
113.18
41.78
-37.14
-124.32
-216.79
-307.29
-385.95
-443.72
-475.74
-481.51
-468.09
-443.16
-413.07
-380.66
-345.68
-306.78
-263.93
-219.69
-177.39
-141.64
-113.66
-91.32
-70.18
-45.66
-15.23
20.39
57.22
90.54
115.70
131.46
140.01
145.75
153.97
169.33
194.67
230.68
276.04
326.76
376.85
418.58
443.96
447.44
428.04
389.43
338.24
281.37
223.20
164.70
103.42
34.73
-44.17
-131.80
-222.08
-305.50
-371.95
-414.05
-428.61
-418.61
-393.42
-362.40
-331.22
-301.61
-272.20
-240.21
-203.19
-157.06
-99.23
-33.14
37.52
109.12
174.94
226.10
254.00
253.40
229.13
191.92
149.53
112.97
94.22
98.98
126.38
171.35
228.04
297.23
379.89
466.15
546.17
612.67
657.63
676.02
668.96
612.20
498.94
385.75
297.42
222.80
154.81
87.57
18.49
-51.44
-119.27
-177.39
-221.50
-259.84
-298.97
-338.93
-377.36
-409.00
-427.05
-425.71
-398.85
-346.25
-279.90
-211.78
-149.23
-97.86
-61.44
-42.18
-40.26
-50.57
-65.41
-80.19
-90.51
-94.70
-98.02
-110.78
-142.53
-196.04
-262.92
-326.79
-371.33
-383.95
-359.66
-303.35
-227.53
-148.74
-83.82
-45.68
-40.72
-67.35
-115.06
-167.19
-206.81
-222.30
-210.72
-177.57
-133.02
-87.34
-47.21
-14.79
11.22
33.92
56.94
83.78
116.86
155.97
196.86
230.90
247.46
238.56
203.33
150.03
94.20
52.90
37.83
50.79
83.34
120.85
148.95
158.95
150.31
129.75
107.74
94.32
95.47
111.55
137.38
164.12
182.42
185.52
171.56
144.12
110.66
79.67
57.72
47.56
47.86
54.84
64.06
71.75
74.86
70.70
55.85
26.48
-20.47
-85.04
-162.26
-241.92
-310.48
-355.50
-369.99
-355.15
-319.79
-276.44
-236.14
-204.51
-181.19
-161.79
-141.41
-117.01
-87.83
-53.62
-13.16
35.76
94.38
160.11
225.23
278.09
306.61
303.28
269.17
214.62
156.29
111.31
90.28
93.32
110.44
126.86
130.14
114.97
83.84
43.57
0.65
-41.34
-81.01
-116.54
-143.28
-154.24
-143.28
-108.95
-56.53
3.35
58.45
99.42
122.21
127.97
120.91
105.41
84.25
58.47
28.56
-3.89
-34.82
-58.41
-69.26
-65.18
-48.62
-25.91
-4.46
10.36
17.09
17.87
16.33
15.20
14.81
13.31
8.34
-1.29
-14.68
-28.96
-40.02
-43.64
-36.69
-18.25
9.53
41.88
71.88
91.96
95.52
78.68
41.46
-11.65
-72.29
-129.76
-172.23
-190.08
-178.40
-138.45
-76.71
-2.19
76.63
153.35
223.62
285.58
337.75
378.38
405.43
417.55
414.97
399.62
373.88
339.36
298.52
254.48
212.00
177.44
157.71
158.31
180.76
220.52
255.64
263.77
231.26
162.39
76.97
-2.21
-60.88
-96.40
-114.26
-122.26
-125.22
-123.36
-115.46
-102.32
-87.82
-77.23
-74.68
-82.09
-96.26
-112.07
-124.72
-131.98
-135.37
-139.37
-148.81
-165.92
-188.78
-211.32
-224.53
-219.62
-191.66
-142.06
-78.82
-13.88
40.89
77.40
93.47
92.67
81.88
67.85
54.42
41.74
27.79
10.76
-9.19
-29.54
-46.92
-59.00
-66.15
-71.41
-78.89
-91.55
-109.77
-131.59
-154.00
-174.07
-188.88
-194.73
-186.92
-161.07
-115.79
-55.29
10.52
69.25
110.98
132.37
137.17
132.89
126.02
118.81
109.43
95.11
75.62
54.38
36.51
25.44
20.01
15.03
3.79
-17.94
-49.64
-86.28
-120.78
-147.69
-165.86
-179.35
-194.80
-218.86
-255.74
-306.05
-366.46
-430.24
-488.12
-529.68
-546.97
-536.42
-501.95
-455.59
-414.05
-391.95
-395.10
-417.71
-445.25
-463.21
-462.06
-441.04
-406.78
-368.24
-331.06
-295.36
-257.53
-214.02
-165.99
-115.99
-65.93
-15.87
35.20
87.54
138.56
182.20
223.99
260.66
288.06
304.70
312.61
314.81
313.69
310.10
303.97
295.08
280.87
258.58
226.40
182.94
128.47
67.37
7.69
-41.19
-71.69
-82.85
-78.37
-65.12
-48.10
-33.44
-24.23
-19.87
-17.56
-14.60
-11.03
-8.04
-6.87
-7.84
-10.35
-12.51
-12.45
-9.31
-3.51
3.05
8.93
13.86
18.89
25.57
35.82
50.79
70.21
92.42
114.88
135.31
152.60
166.92
179.38
192.03
207.31
227.54
254.06
286.08
319.93
349.34
367.02
367.20
348.24
313.43
269.70
224.81
184.32
150.09
120.57
92.68
63.82
33.00
0.93
-30.91
-60.92
-87.62
-109.32
-124.21
-130.76
-128.35
-117.53
-99.95
-77.39
-50.87
-20.24
15.31
56.02
100.41
144.86
184.21
213.36
229.12
231.51
223.77
211.20
199.15
191.46
189.63
193.04
199.75
207.35
213.29
214.90
209.34
193.79
166.12
125.67
74.04
15.24
-44.70
-98.68
-139.67
-162.04
-163.11
-143.91
-109.07
-65.54
-20.56
19.91
51.79
72.42
79.97
73.31
52.66
20.67
-17.13
-53.33
-80.42
-92.83
-88.09
-66.73
-32.21
9.98
52.92
89.45
113.45
121.17
112.13
88.73
55.39
16.26
-26.62
-73.73
-126.59
-185.49
-247.59
-306.20
-352.34
-377.18
-375.79
-349.42
-305.12
-252.78
-201.46
-156.63
-119.27
-90.88
-71.85
-61.34
-58.20
-61.78
-71.27
-84.88
-99.76
-112.30
-119.77
-120.54
-115.07
-105.35
-94.77
-86.18
-80.85
-78.27
-76.05
-71.74
-63.19
-49.44
-30.61
-7.30
19.89
50.07
77.01
93.65
92.82
70.72
29.66
-21.82
-72.12
-111.63
-137.04
-152.02
-163.40
-176.55
-191.57
-203.46
-205.79
-195.12
-173.25
-146.17
-120.68
-100.62
-85.94
-73.60
-59.99
-43.11
-23.18
-2.11
18.06
36.18
52.72
69.26
87.66
109.33
134.60
162.55
191.61
220.50
249.19
279.02
311.61
347.02
381.98
409.99
423.32
416.48
389.16
346.81
298.14
251.20
210.28
175.40
144.50
116.04
90.43
69.17
52.66
39.13
25.36
9.25
-7.60
-19.95
-21.27
-7.43
20.30
55.04
86.94
107.20
111.60
101.62
83.08
62.70
44.77
29.33
12.37
-11.77
-47.50
-96.09
-154.75
-217.26
-275.62
-321.74
-349.56
-356.59
-344.53
-318.67
-285.87
-251.81
-218.91
-185.93
-149.51
-107.05
-58.74
-8.13
39.32
78.75
107.79
127.08
139.29
147.44
153.28
156.36
154.22
143.50
121.36
87.08
42.85
-6.71
-55.76
-99.06
-133.24
-156.86
-169.37
-169.87
-156.34
-126.66
-80.57
-21.83
41.22
97.43
136.55
153.06
148.07
128.73
104.83
85.00
74.01
72.34
77.34
85.14
92.02
94.95
91.66
80.32
60.16
32.31
0.60
-28.58
-47.63
-50.11
-33.35
-0.06
41.85
81.41
107.93
114.25
98.28
62.42
11.49
-49.45
-115.96
-183.81
-247.95
-302.18
-340.31
-357.80
-353.48
-329.53
-290.47
-241.62
-188.21
-134.98
-86.49
-47.00
-19.84
-6.81
-7.56
-19.51
-38.29
-58.29
-73.36
-77.75
-67.34
-41.01
-1.18
46.63
95.43
138.92
173.15
197.08
212.01
220.42
225.05
228.25
231.73
236.38
242.15
248.25
253.27
255.67
254.16
248.07
237.50
223.46
207.61
191.97
178.38
167.85
160.49
155.81
153.51
153.88
157.63
165.03
174.95
184.36
188.95
184.48
168.31
140.28
102.36
57.52
8.49
-42.73
-94.49
-144.81
-190.79
-228.88
-255.43
-267.95
-265.93
-251.43
-228.69
-203.19
-180.13
-162.70
-151.43
-144.66
-140.09
-136.64
-135.13
-137.27
-143.67
-152.46
-159.89
-162.81
-161.30
-159.70
-164.43
-179.85
-204.58
-231.22
-249.48
-251.21
-234.33
-203.16
-165.28
-127.07
-90.86
-55.49
-19.06
17.97
52.03
78.24
93.63
99.33
100.22
102.26
109.00
119.62
129.61
133.46
127.61
112.21
90.65
67.49
46.07
27.32
10.54
-5.08
-19.26
-30.46
-36.92
-38.11
-35.29
-30.97
-27.22
-24.42
-21.15
-15.36
-6.02
5.72
16.68
23.10
22.36
14.38
1.69
-11.54
-20.99
-23.57
-18.72
-8.51
3.06
11.92
16.24
17.89
22.10
35.08
60.61
97.27
138.07
172.51
190.45
185.81
158.76
115.70
67.05
24.09
-4.43
-14.15
-5.65
16.58
46.03
76.07
101.59
119.76
130.19
134.25
134.21
132.01
128.23
121.46
108.29
84.87
49.36
4.23
-43.27
-83.19
-107.06
-111.87
-101.68
-85.62
-73.47
-71.32
-79.57
-94.06
-109.32
-121.87
-131.59
-140.46
-150.14
-159.79
-165.82
-163.57
-149.92
-125.25
-93.78
-62.17
-36.88
-21.81
-17.01
-19.26
-23.87
-27.03
-27.45
-26.57
-27.13
-31.35
-39.55
-49.77
-58.64
-62.52
-58.93
-47.29
-29.17
-7.75
12.94
29.22
38.79
41.24
37.70
29.90
19.37
6.98
-6.44
-19.72
-30.59
-35.68
-31.41
-15.31
12.69
50.13
92.93
136.85
178.07
213.64
241.42
259.87
267.81
264.73
251.23
229.52
203.45
176.79
151.94
129.23
107.35
84.34
58.77
30.48
-1.35
-33.64
-61.25
-79.61
-87.24
-85.80
-78.15
-66.74
-52.97
-37.56
-20.99
-4.24
11.14
24.03
34.01
41.65
48.11
54.67
61.73
69.45
77.19
83.74
88.21
90.32
90.70
90.55
91.15
93.47
97.33
101.85
105.41
107.05
106.03
102.24
95.79
86.22
76.89
68.38
60.02
49.77
37.49
22.95
7.07
-8.46
-21.90
-32.21
-40.25
-47.92
-59.10
-73.56
-91.61
-111.92
-132.22
-150.32
-165.18
-178.08
-191.62
-211.45
-237.28
-270.97
-312.97
-361.69
-413.04
-460.30
-495.48
-510.90
-505.10
-474.10
-422.59
-357.91
-286.84
-213.05
-136.64
-56.15
48.99
146.00
231.33
295.27
330.31
334.47
312.27
273.00
227.14
183.03
141.55
106.87
76.60
47.70
17.89
-13.46
-45.00
-73.28
-93.23
-101.72
-90.82
-57.81
-2.55
72.25
161.07
255.48
344.66
416.84
460.45
472.39
454.58
415.73
368.10
323.02
287.08
260.75
239.93
218.20
192.17
160.21
123.50
85.23
49.74
21.39
3.35
-3.72
-2.63
1.92
4.37
1.00
-8.54
-21.46
-33.80
-43.01
-49.38
-56.04
-67.42
-87.27
-117.03
-154.79
-194.96
-228.63
-245.37
-236.44
-198.74
-137.45
-65.23
1.74
49.81
72.67
72.49
57.11
35.05
11.55
-12.46
-38.45
-67.28
-97.40
-125.50
-148.54
-165.90
-180.11
-195.73
-217.19
-247.24
-286.58
-334.23
-388.09
-444.83
-499.46
-545.33
-575.22
-583.47
-568.22
-532.19
-481.68
-424.01
-364.72
-306.10
-247.69
-188.33
-128.14
-69.34
-15.43
30.51
67.58
97.62
124.40
151.64
180.98
210.94
237.99
258.92
273.11
282.80
291.44
301.20
311.90
321.66
328.88
333.52
336.68
338.24
335.02
321.07
290.24
240.44
176.51
109.86
54.63
22.00
15.70
30.72
55.57
76.81
83.89
72.01
42.31
-0.32
-50.72
-106.38
-168.18
-238.47
-318.00
-403.14
-485.55
-554.48
-600.75
-620.35
-615.71
-594.23
-564.80
-534.30
-505.34
-476.98
-447.03
-414.67
-381.62
-351.35
-326.92
-309.11
-295.89
-283.49
-268.39
-248.85
-225.43
-200.46
-176.48
-155.07
-136.15
-118.22
-99.22
-77.48
-52.43
-24.68
4.32
32.93
59.82
84.19
105.83
124.94
142.00
157.72
172.98
188.70
205.63
224.08
243.81
264.18
284.37
303.95
323.06
342.48
363.30
386.65
413.40
443.82
477.27
511.73
543.75
569.09
584.14
587.79
582.55
574.14
569.46
573.76
588.26
609.58
631.13
645.68
647.92
635.76
610.22
574.21
531.14
484.08
435.45
387.28
341.36
299.27
262.17
230.34
203.02
178.48
154.52
129.31
102.18
73.86
46.11
20.92
-0.46
-18.18
-33.79
-49.65
-67.97
-89.80
-114.68
-140.86
-166.14
-189.00
-209.43
-228.91
-249.86
-274.48
-303.87
-337.97
-375.85
-416.26
-457.85
-498.85
-536.94
-569.75
-595.73
-614.84
-628.16
-636.17
-637.10
-626.76
-600.31
-555.27
-493.72
-422.28
-349.67
-283.15
-225.37
-173.77
-122.78
-66.96
-3.73
65.34
135.03
197.19
241.64
259.97
248.38
208.39
146.41
71.99
-4.93
-75.13
-132.08
-173.65
-199.00
-206.98
-197.39
-171.27
-130.98
-80.23
-22.86
35.36
83.65
111.71
114.68
94.09
58.71
22.10
-2.53
-5.47
15.05
49.91
88.31
124.56
157.97
192.00
231.20
265.23
281.56
291.95
299.21
292.01
264.92
216.60
149.43
68.88
-17.92
-101.35
-172.29
-227.53
-265.44
-284.26
-284.59
-269.17
-242.00
-207.54
-168.32
-125.88
-84.20
-46.05
-11.50
20.23
50.27
79.82
109.65
140.86
174.31
209.16
245.78
286.51
333.27
385.56
439.16
486.28
518.11
527.74
511.86
472.94
418.27
356.47
294.46
236.07
182.06
131.83
84.52
39.14
-5.15
-49.28
-94.94
-144.26
-198.93
-258.94
-321.52
-380.87
-429.59
-460.85
-470.76
-459.55
-431.09
-390.99
-344.36
-294.58
-243.32
-191.57
-140.54
-91.70
-45.99
-2.84
40.42
88.09
144.66
212.65
290.79
373.22
450.36
511.76
549.75
562.10
552.62
529.15
500.07
471.22
444.62
419.41
394.05
368.02
342.25
318.09
295.95
274.57
251.58
224.75
193.24
158.11
121.90
87.39
56.29
28.51
2.34
-24.62
-54.28
-87.08
-121.80
-156.30
-188.47
-217.28
-243.06
-267.14
-291.15
-316.66
-345.07
-377.62
-414.75
-455.13
-494.56
-526.08
-541.62
-534.65
-502.48
-446.91
-373.44
-289.63
-203.60
-123.25
-55.60
-6.27
21.63
27.98
15.51
-11.03
-45.71
-81.88
-112.82
-132.47
-136.64
-124.35
-97.83
-60.91
-16.34
35.79
97.24
168.37
245.06
318.10
376.34
411.40
421.46
411.60
390.58
366.45
343.49
322.17
301.17
279.76
258.97
241.03
227.93
219.81
215.04
211.02
205.54
197.77
188.31
178.77
170.81
165.18
161.24
157.30
151.21
141.28
126.97
109.07
89.32
69.61
51.16
34.12
17.66
0.49
-18.29
-38.75
-59.85
-79.92
-97.37
-111.55
-123.17
-134.18
-147.19
-164.45
-187.10
-214.82
-246.29
-279.72
-313.75
-347.85
-382.25
-417.77
-455.61
-497.25
-544.14
-596.75
-653.26
-708.84
-756.06
-786.98
-796.25
-783.38
-753.13
-713.61
-672.95
-636.51
-605.78
-579.36
-554.96
-531.15
-507.67
-484.82
-462.45
-439.62
-415.05
-388.00
-358.92
-329.36
-301.51
-277.12
-256.83
-239.97
-224.88
-209.68
-193.00
-174.45
-154.59
-134.52
-115.26
-97.30
-80.52
-64.34
-48.20
-31.89
-15.78
-0.69
12.49
23.13
31.22
37.31
42.37
47.39
53.16
60.08
68.23
77.58
88.20
100.33
114.33
130.38
148.31
167.48
186.89
205.46
222.45
237.64
251.41
264.44
277.32
290.14
302.38
313.04
321.15
326.31
329.03
330.73
333.23
338.11
346.08
356.78
369.24
382.35
395.68
409.63
425.29
444.03
467.28
496.48
532.94
576.96
626.67
677.05
720.23
747.38
751.65
730.76
687.90
630.46
567.09
504.99
448.30
398.26
354.33
315.36
280.07
247.07
214.86
182.15
148.61
115.08
83.13
54.11
28.40
4.94
-18.36
-43.77
-73.31
-108.28
-148.81
-193.01
-236.19
-271.39
-291.79
-294.05
-280.79
-259.96
-241.22
-231.24
-230.60
-234.69
-237.76
-237.49
-237.13
-244.04
-265.63
-305.22
-360.17
-422.56
-481.94
-528.34
-554.54
-557.30
-537.81
-500.90
-453.23
-401.16
-348.96
-298.30
-249.31
-201.95
-156.90
-115.29
-77.40
-41.89
-5.91
33.61
78.30
127.59
179.36
231.60
284.00
338.31
396.59
458.59
519.84
572.00
605.48
613.48
594.83
554.15
499.47
438.69
377.51
319.58
268.12
227.12
200.58
190.03
191.91
197.38
195.38
177.97
144.62
103.08
65.80
43.86
41.38
53.72
70.18
79.16
73.13
51.00
16.73
-24.09
-67.50
-111.61
-154.66
-192.82
-219.73
-229.45
-220.01
-195.93
-167.40
-146.08
-138.53
-141.62
-143.02
-126.80
-82.28
-9.67
79.35
166.44
233.39
270.02
276.97
263.20
240.66
217.28
195.78
175.01
152.80
125.81
93.60
59.16
26.84
0.86
-20.82
-42.53
-67.59
-97.14
-135.26
-182.52
-234.82
-284.86
-322.98
-349.72
-369.51
-386.70
-404.62
-433.27
-477.98
-535.77
-596.66
-644.54
-677.82
-700.75
-718.35
-735.92
-769.10
-829.10
-917.03
-1023.30
-1126.68
-1219.55
-1297.37
-1354.85
-1311.58
-1126.26
-819.90
-467.54
-193.53
-1.87
127.68
214.84
283.55
341.74
380.30
391.56
377.38
349.85
330.77
324.38
327.63
335.94
343.53
337.90
311.47
265.94
211.71
166.79
135.67
117.14
108.63
106.44
102.54
91.72
74.27
55.66
46.00
46.95
56.78
73.10
92.96
111.52
125.25
133.27
137.23
141.32
146.14
151.26
156.46
161.45
165.16
166.61
165.32
161.54
156.71
151.63
147.50
146.11
149.08
157.40
170.85
188.08
207.38
227.40
247.88
269.61
293.82
321.47
352.92
388.09
426.75
468.18
510.34
548.77
576.77
586.78
572.96
533.59
471.70
393.50
305.45
212.08
115.92
19.50
-72.16
-150.98
-207.71
-235.57
-233.35
-206.07
-162.82
-113.19
-64.28
-19.61
20.05
54.47
82.47
101.88
110.88
110.01
103.29
97.80
101.78
122.17
162.58
221.89
294.46
371.28
441.89
496.69
529.02
536.57
521.53
489.63
448.06
403.27
359.60
318.89
281.58
247.81
218.08
192.97
172.52
155.80
141.21
127.29
113.48
100.27
88.77
79.97
73.91
69.55
65.09
58.66
49.14
36.47
21.60
6.00
-8.98
-22.61
-34.86
-46.18
-57.10
-67.81
-78.14
-87.71
-96.32
-104.24
-112.25
-121.37
-132.42
-145.57
-160.31
-175.55
-190.23
-203.82
-216.57
-229.43
-243.57
-259.75
-277.88
-297.14
-316.06
-333.26
-347.92
-360.08
-370.78
-382.22
-397.55
-420.13
-451.95
-491.74
-533.84
-569.00
-587.03
-580.70
-548.61
-495.75
-430.98
-363.34
-298.51
-237.76
-179.25
-120.46
-59.87
3.05
68.67
137.75
210.52
284.98
355.63
414.21
452.31
464.58
451.04
417.15
371.65
323.52
279.40
242.45
212.54
187.28
163.16
136.42
103.47
61.56
9.45
-51.30
-115.51
-174.63
-218.86
-240.79
-238.82
-218.27
-189.17
-161.84
-142.31
-130.08
-119.38
-103.02
-76.73
-41.65
-3.87
28.20
47.23
49.17
34.11
5.11
-33.51
-77.91
-126.11
-178.25
-236.05
-301.19
-373.42
-449.21
-521.96
-583.40
-626.27
-646.65
-645.18
-626.42
-596.72
-561.64
-524.34
-485.66
-445.48
-404.38
-364.29
-327.69
-296.11
-269.00
-243.83
-217.50
-188.07
-155.80
-122.95
-92.79
-67.76
-48.35
-32.82
-18.01
-0.75
20.82
46.53
74.38
101.53
125.61
145.72
162.63
178.32
194.92
213.73
234.70
256.62
277.71
296.56
312.79
327.29
342.16
360.48
385.64
420.29
464.64
515.09
563.90
600.74
615.87
603.65
564.75
505.64
435.83
364.14
295.82
232.00
170.85
109.54
45.47
-23.21
-97.35
-176.00
-255.47
-328.91
-387.49
-423.27
-432.27
-416.22
-382.02
-338.98
-295.44
-256.30
-222.55
-192.51
-163.64
-133.89
-101.99
-67.38
-29.79
10.82
54.24
100.21
149.15
202.52
262.67
331.07
406.27
482.40
549.45
596.17
613.95
599.71
556.74
493.22
419.79
347.22
284.74
238.73
211.55
200.71
198.99
196.71
185.16
159.77
121.48
75.03
25.37
-25.42
-78.14
-134.41
-193.09
-248.43
-291.37
-313.01
-307.96
-275.87
-220.62
-148.60
-67.55
13.74
85.12
136.45
160.79
157.59
134.24
103.69
79.23
69.00
73.55
87.79
105.36
122.38
137.68
150.57
158.47
157.46
145.74
127.32
112.27
112.34
134.41
175.42
222.75
259.99
274.69
263.51
232.49
192.57
153.53
120.22
92.29
66.89
41.44
15.15
-11.27
-37.09
-62.51
-88.70
-117.28
-149.26
-184.54
-221.99
-259.99
-297.42
-334.51
-373.28
-416.74
-467.07
-523.62
-581.86
-634.00
-671.55
-688.30
-682.50
-657.21
-618.62
-573.61
-527.60
-483.75
-443.28
-406.46
-373.18
-343.11
-315.52
-289.29
-263.19
-236.36
-208.49
-179.57
-149.39
-117.42
-82.70
-44.11
-1.16
45.67
94.64
143.15
188.50
228.91
264.41
297.39
332.22
373.52
423.84
481.30
538.90
586.12
612.36
610.57
579.49
523.94
453.27
379.33
314.01
266.85
242.64
239.75
249.83
260.07
257.98
236.67
197.80
150.14
104.81
70.04
48.67
39.53
40.39
50.26
68.72
93.55
118.70
135.09
134.16
111.77
70.49
18.30
-35.25
-83.20
-123.39
-158.01
-191.34
-227.35
-268.82
-317.31
-373.56
-437.35
-506.72
-577.00
-640.81
-689.48
-715.88
-717.05
-695.31
-657.35
-611.49
-564.73
-520.91
-480.72
-443.18
-407.29
-372.89
-340.36
-309.87
-280.88
-252.25
-222.88
-192.28
-160.77
-129.30
-98.97
-70.55
-44.31
-20.20
1.90
22.00
40.02
55.85
69.57
81.41
91.66
100.41
107.35
111.96
113.91
113.67
112.81
113.83
119.44
131.36
149.45
171.48
194.00
213.92
230.18
244.51
260.58
282.07
310.62
344.96
381.38
414.96
440.87
455.11
455.01
440.11
413.19
380.73
351.55
333.53
329.69
335.83
341.49
334.21
305.23
253.66
187.15
118.83
62.01
25.17
9.52
9.62
16.38
21.17
18.93
9.36
-4.42
-18.44
-30.66
-42.29
-56.89
-77.50
-103.77
-130.80
-150.86
-157.13
-146.99
-123.47
-93.25
-62.73
-34.35
-5.24
31.38
82.46
151.19
234.73
324.47
408.64
475.94
518.93
535.90
530.73
510.85
484.12
455.83
427.38
397.14
362.95
324.66
285.02
248.49
218.56
195.40
175.29
152.22
120.85
79.04
29.02
-23.49
-71.93
-111.76
-142.41
-167.38
-192.61
-223.72
-264.09
-313.80
-370.04
-428.16
-482.43
-526.49
-553.59
-557.86
-536.49
-492.52
-435.66
-380.17
-339.43
-319.82
-317.97
-323.21
-324.60
-317.96
-308.37
-306.19
-319.23
-346.15
-375.58
-391.80
-383.28
-348.80
-297.49
-242.98
-195.87
-158.90
-127.44
-93.61
-51.72
-0.96
55.20
112.07
167.20
221.66
278.64
340.08
404.20
465.32
516.81
554.87
580.62
599.10
615.51
631.40
643.40
645.33
632.26
603.80
564.37
520.78
478.68
440.56
405.90
373.23
342.00
313.03
287.63
266.31
248.09
230.90
212.56
191.83
168.97
145.57
123.70
105.07
90.33
78.85
69.18
59.71
49.47
38.46
27.63
18.21
11.17
6.61
3.66
0.91
-2.99
-8.70
-15.92
-23.59
-30.40
-35.49
-38.79
-41.16
-43.90
-48.11
-54.18
-61.51
-68.82
-74.78
-78.69
-80.94
-82.88
-86.29
-92.49
-101.74
-113.05
-124.62
-134.85
-143.00
-149.48
-155.74
-163.38
-173.57
-186.98
-203.95
-224.49
-247.49
-269.80
-286.21
-290.93
-280.29
-255.28
-222.14
-190.34
-168.76
-162.20
-170.01
-187.67
-209.88
-233.18
-256.84
-281.69
-308.29
-335.94
-363.25
-389.52
-416.01
-445.86
-482.50
-527.70
-579.61
-631.97
-675.56
-700.87
-701.42
-676.18
-629.90
-571.30
-509.77
-452.10
-400.79
-354.41
-309.57
-263.26
-214.51
-164.70
-116.38
-72.02
-32.61
2.92
36.92
72.23
111.30
155.42
204.46
256.92
309.94
359.38
400.36
428.19
440.11
437.07
424.68
412.07
408.63
419.95
444.97
476.11
502.33
513.79
505.54
478.36
437.19
388.00
335.45
282.03
228.97
176.86
125.94
75.93
26.16
-23.05
-69.71
-109.97
-139.12
-153.04
-149.24
-126.98
-87.40
-33.90
27.04
85.67
130.57
151.98
145.43
113.83
66.25
13.85
-34.71
-76.23
-113.03
-150.61
-194.25
-246.40
-305.13
-364.05
-413.68
-444.32
-449.03
-426.18
-380.02
-318.72
-251.29
-184.48
-121.38
-61.97
-4.93
51.16
107.51
165.86
228.49
297.15
370.90
444.56
509.10
554.39
572.98
563.39
530.78
484.80
435.76
391.09
353.70
322.60
295.00
268.39
241.67
215.04
189.24
164.68
141.29
118.62
96.21
73.90
51.95
30.86
11.05
-7.35
-24.64
-41.52
-58.90
-77.67
-98.45
-121.44
-146.40
-172.76
-199.89
-227.32
-254.93
-282.95
-311.84
-342.34
-375.54
-412.86
-455.74
-504.68
-558.18
-612.08
-660.02
-695.11
-712.32
-710.31
-691.97
-663.14
-630.35
-598.66
-570.54
-546.16
-524.45
-504.18
-484.47
-464.63
-443.71
-420.45
-393.58
-362.37
-327.12
-289.20
-250.76
-213.94
-180.33
-150.55
-124.29
-100.64
-78.63
-57.68
-37.77
-19.35
-3.05
10.75
22.20
32.02
41.35
51.33
62.77
75.81
89.90
103.96
116.75
127.32
135.38
141.35
146.22
151.21
157.25
164.66
172.94
181.14
188.07
192.92
195.71
197.42
200.05
206.27
218.74
238.80
265.12
293.03
315.67
326.56
322.80
307.13
287.24
272.84
271.65
286.77
316.36
355.37
397.88
438.37
472.00
493.85
499.32
484.89
449.72
396.33
329.78
255.51
177.14
96.06
12.57
-71.48
-150.75
-217.04
-262.66
-284.78
-288.03
-283.19
-282.31
-292.85
-313.92
-337.38
-352.65
-352.58
-336.68
-310.25
-280.39
-251.94
-225.74
-199.83
-172.13
-142.33
-111.90
-82.81
-55.75
-29.66
-2.45
27.78
61.42
97.25
132.96
166.44
196.99
226.02
256.90
293.78
339.12
391.42
444.09
486.60
507.85
500.45
464.12
406.71
342.25
286.60
252.06
243.56
257.61
284.45
312.35
331.65
336.80
326.11
300.23
261.09
211.99
158.38
108.04
69.81
50.20
50.33
64.44
81.59
89.97
81.58
55.27
16.81
-23.52
-54.37
-66.15
-53.05
-14.09
46.63
120.45
195.66
260.06
304.18
323.36
318.97
297.31
266.86
235.21
206.87
182.85
161.85
142.08
122.51
103.02
83.73
64.20
43.33
19.66
-7.80
-39.12
-73.20
-108.15
-142.03
-173.51
-202.29
-229.14
-255.53
-283.18
-313.83
-349.36
-391.74
-442.52
-501.45
-565.23
-627.01
-677.77
-709.02
-716.01
-699.49
-665.24
-621.55
-575.84
-532.44
-492.12
-453.60
-415.36
-377.03
-339.46
-303.88
-270.88
-239.91
-209.44
-177.56
-142.70
-104.28
-62.93
-20.31
21.60
61.08
97.45
131.21
163.87
197.29
233.29
273.37
318.50
368.68
422.04
474.18
518.45
547.31
554.67
538.09
499.64
444.94
380.87
313.00
243.93
173.18
98.64
18.83
-65.10
-148.57
-224.42
-285.02
-324.84
-342.31
-339.97
-323.18
-297.69
-267.62
-235.02
-200.41
-164.05
-126.65
-88.84
-49.96
-7.07
44.44
108.42
184.72
267.16
343.84
399.97
422.96
407.28
357.09
285.73
211.72
153.31
123.57
127.71
163.38
222.67
294.76
368.14
432.10
477.93
500.11
497.22
472.19
431.29
382.37
332.35
285.55
243.31
204.91
169.05
134.97
102.67
72.42
44.10
16.63
-12.10
-44.78
-83.65
-128.92
-177.50
-222.78
-255.73
-267.38
-251.71
-207.87
-140.98
-61.26
18.40
85.48
130.82
150.56
146.71
125.89
96.92
67.84
43.51
24.82
9.42
-6.37
-25.58
-49.59
-78.26
-110.72
-145.89
-182.99
-221.38
-260.45
-299.81
-339.84
-382.29
-429.96
-485.33
-548.24
-614.30
-674.92
-719.75
-740.52
-734.36
-705.01
-661.07
-612.42
-566.55
-526.50
-492.01
-460.68
-430.29
-399.78
-369.11
-338.53
-307.97
-277.02
-245.00
-212.13
-178.70
-145.41
-113.01
-82.15
-53.39
-27.12
-3.53
18.21
38.05
57.04
76.40
97.00
118.93
141.24
162.24
180.30
196.31
208.88
219.95
232.15
247.93
268.69
294.31
322.74
350.19
375.60
390.84
394.17
388.12
379.58
377.90
390.68
419.42
457.39
496.98
516.50
504.39
457.43
381.83
290.71
199.62
122.00
66.08
41.93
39.24
53.38
79.76
115.84
161.20
216.50
280.76
300.81
326.44
337.16
323.15
279.99
210.42
123.49
32.05
-50.56
-113.69
-144.25
-151.47
-143.26
-132.52
-133.27
-155.68
-201.87
-264.74
-330.67
-378.95
-405.42
-407.04
-387.29
-352.61
-308.84
-259.41
-206.23
-151.94
-97.68
-54.06
-27.10
-19.10
-26.86
-42.50
-56.46
-61.19
-53.62
-33.39
-6.20
24.75
58.44
95.29
134.70
172.72
201.66
212.31
199.03
161.44
107.77
52.19
10.07
-6.85
6.33
47.18
107.54
176.52
242.73
295.80
327.25
331.24
306.06
255.79
191.33
128.91
85.91
74.53
96.17
139.97
186.11
213.93
210.74
176.90
124.27
69.55
26.03
-1.61
-16.91
-27.74
-41.22
-61.23
-88.59
-122.72
-162.42
-205.07
-245.43
-275.36
-285.79
-269.90
-226.45
-161.19
-85.23
-11.33
50.65
96.12
126.15
145.03
156.86
162.62
159.23
141.81
107.34
58.26
3.80
-42.29
-67.06
-63.55
-33.42
14.42
68.05
117.23
155.97
182.31
196.26
197.62
185.43
159.31
121.34
76.69
31.94
-8.08
-42.92
-76.28
-113.26
-156.07
-200.99
-238.62
-257.25
-247.34
-204.97
-132.95
-39.75
63.16
163.65
250.93
316.95
357.44
372.50
366.32
345.61
317.29
286.42
255.23
223.82
191.87
159.64
127.99
97.62
67.92
36.56
0.59
-41.79
-89.86
-140.00
-186.21
-221.71
-240.63
-239.80
-220.08
-186.76
-148.71
-116.11
-97.39
-96.63
-112.76
-140.56
-173.57
-206.91
-238.92
-270.87
-305.63
-346.00
-393.58
-448.23
-507.73
-567.71
-621.72
-662.53
-684.43
-685.25
-666.98
-634.96
-595.64
-554.33
-514.15
-476.41
-441.66
-410.44
-383.14
-359.28
-337.09
-313.94
-287.47
-256.86
-223.31
-189.59
-158.78
-132.79
-111.49
-92.79
-73.60
-51.16
-24.19
6.70
39.57
72.03
102.33
130.02
155.86
181.41
208.78
240.34
278.16
322.71
371.35
417.56
451.98
465.41
452.89
416.55
365.78
314.15
274.50
254.85
257.06
278.26
313.48
357.53
405.01
449.57
483.29
498.06
488.13
452.47
395.26
324.13
247.35
171.03
98.06
29.04
-35.54
-93.56
-140.67
-171.25
-180.60
-167.27
-134.24
-88.08
-36.75
12.96
56.87
92.75
118.42
130.02
122.29
91.35
38.40
-28.24
-94.25
-143.67
-164.29
-151.74
-110.47
-51.91
9.27
59.03
86.59
85.69
54.77
-3.20
-81.42
-169.94
-256.92
-330.75
-382.53
-408.26
-409.54
-392.58
-365.68
-336.06
-307.65
-280.91
-254.42
-227.06
-199.20
-172.03
-146.23
-120.59
-92.09
-57.40
-14.69
35.61
91.48
150.51
210.69
269.78
324.21
368.90
398.89
412.04
410.84
401.74
391.55
383.10
373.28
355.00
322.63
277.37
228.83
191.29
176.71
188.33
218.91
254.44
281.07
291.18
285.41
270.26
253.05
237.81
224.28
210.01
193.84
177.87
166.61
163.79
169.13
177.38
180.27
170.55
145.75
109.26
68.62
31.53
2.20
-20.21
-40.64
-65.58
-100.20
-146.18
-200.77
-256.86
-304.15
-331.64
-331.28
-301.43
-248.64
-186.14
-129.41
-90.61
-74.73
-79.28
-97.40
-122.47
-151.60
-186.15
-229.36
-282.56
-342.55
-401.36
-448.74
-475.86
-478.49
-458.26
-421.22
-374.94
-325.31
-274.82
-223.02
-168.39
-110.37
-50.58
7.80
61.55
108.93
149.92
185.28
214.76
236.05
244.97
236.72
207.87
157.99
90.40
11.90
-68.47
-141.23
-198.32
-234.53
-248.27
-241.32
-217.91
-183.30
-142.50
-99.31
-56.12
-14.26
25.60
63.45
100.19
137.98
180.32
231.15
293.17
365.84
444.11
518.76
578.70
614.70
622.68
605.11
569.68
526.00
481.85
441.05
403.56
367.30
330.53
293.01
255.92
220.77
188.26
157.80
127.84
96.57
62.66
25.78
-13.47
-53.87
-94.21
-133.67
-172.14
-210.12
-248.40
-287.86
-329.43
-374.40
-424.37
-480.46
-541.88
-604.69
-661.74
-704.40
-725.60
-722.74
-698.80
-661.04
-617.78
-575.11
-535.20
-496.88
-457.76
-416.49
-373.75
-331.59
-291.88
-254.92
-219.10
-181.71
-140.35
-94.18
-44.55
5.47
52.48
94.14
130.22
162.83
195.49
231.90
274.73
325.12
382.42
443.97
505.02
558.83
597.55
614.01
604.26
569.60
516.90
456.52
398.58
349.35
309.48
274.94
240.00
200.35
154.84
105.06
53.35
0.84
-53.50
-112.21
-177.42
-248.74
-321.90
-389.22
-441.81
-472.48
-478.20
-460.94
-426.79
-383.20
-336.10
-288.34
-239.57
-188.02
-132.70
-74.91
-18.28
32.72
74.79
107.21
131.43
149.88
164.39
175.48
183.28
189.27
197.81
215.67
249.16
300.13
363.47
427.50
478.04
503.91
500.99
472.77
427.51
373.86
318.03
263.71
213.77
172.18
144.24
134.61
144.77
171.47
207.52
244.49
275.64
297.56
309.88
314.03
311.48
303.15
289.49
271.15
249.35
225.80
202.22
179.90
159.57
141.25
124.57
108.95
93.91
79.16
64.58
50.15
36.06
22.61
10.10
-1.10
-10.76
-18.86
-25.70
-31.92
-38.35
-45.67
-54.12
-63.40
-72.71
-81.15
-88.25
-94.12
-99.47
-105.26
-112.19
-120.52
-130.34
-141.84
-155.25
-170.23
-185.20
-197.30
-203.38
-201.58
-192.76
-180.65
-170.55
-167.23
-173.07
-187.60
-208.36
-232.44
-257.67
-283.05
-308.18
-332.73
-356.36
-379.05
-401.79
-426.98
-458.03
-497.94
-547.72
-604.36
-660.71
-706.93
-733.64
-735.47
-713.05
-672.66
-623.46
-573.92
-529.01
-489.76
-454.59
-421.53
-389.79
-359.93
-333.01
-309.45
-288.49
-268.42
-247.47
-224.38
-198.86
-171.55
-143.49
-115.69
-88.70
-62.48
-36.33
-9.17
20.16
52.50
88.10
126.53
166.56
206.94
246.83
286.15
325.39
365.31
406.58
450.00
496.63
547.44
602.73
660.86
717.23
764.43
794.08
799.87
780.18
738.89
683.20
621.41
560.25
503.61
452.51
406.34
364.11
325.02
288.19
250.68
209.60
163.56
113.36
60.92
8.19
-43.64
-94.26
-144.00
-196.61
-254.96
-319.24
-387.16
-455.84
-522.60
-584.35
-636.43
-672.87
-692.98
-696.97
-684.22
-653.00
-602.89
-536.61
-460.26
-382.94
-316.15
-278.53
-284.63
-337.16
-424.81
-527.47
-623.92
-697.92
-741.65
-713.91
-600.94
-424.75
-232.16
-64.29
61.68
148.03
204.25
238.96
255.91
254.81
236.11
205.32
172.44
146.51
131.54
126.84
129.68
135.53
137.20
130.62
117.38
103.60
95.38
95.54
103.48
116.80
132.96
147.56
157.76
164.17
170.26
179.64
193.93
212.59
233.69
254.80
272.46
283.98
288.83
288.68
286.22
283.87
283.24
284.93
288.64
293.16
297.27
300.76
304.71
311.05
321.79
338.50
362.15
393.11
430.99
473.97
518.32
558.32
587.21
598.82
589.51
559.18
511.11
450.60
383.24
313.75
245.62
181.39
122.65
70.12
23.11
-20.63
-64.16
-110.46
-161.28
-216.67
-274.79
-332.14
-384.04
-425.77
-454.23
-469.64
-476.27
-481.17
-491.03
-508.58
-530.60
-548.96
-554.41
-541.08
-508.91
-463.38
-412.04
-360.91
-312.23
-264.92
-216.45
-165.01
-110.66
-55.32
-2.34
44.42
81.34
105.98
118.20
120.86
119.42
120.26
128.64
147.12
175.56
212.23
255.14
302.80
353.62
404.90
452.39
491.24
517.76
531.15
533.62
528.95
520.39
508.97
493.53
472.06
443.56
408.96
370.77
331.81
294.01
258.02
223.84
191.67
162.40
137.23
116.69
99.73
83.68
65.21
41.68
12.33
-21.50
-56.86
-90.74
-121.49
-149.64
-177.90
-210.47
-251.88
-305.39
-371.15
-444.86
-517.32
-575.90
-607.95
-605.42
-568.69
-507.82
-439.88
-383.28
-351.34
-347.85
-366.52
-394.39
-417.34
-425.12
-413.85
-385.29
-344.33
-295.85
-243.01
-187.15
-128.80
-68.88
-8.59
50.96
109.23
165.75
219.03
265.66
300.23
317.04
312.26
285.78
241.27
184.69
121.78
56.10
-11.19
-79.71
-147.73
-211.21
-264.75
-304.02
-327.87
-338.80
-341.24
-338.88
-332.79
-321.29
-302.12
-274.84
-242.05
-208.32
-177.63
-151.01
-125.90
-97.77
-62.81
-20.13
28.08
77.76
125.04
167.98
207.10
245.04
285.53
332.32
388.02
452.92
523.92
594.35
655.17
697.46
715.51
708.83
682.25
643.75
601.21
559.87
521.46
485.39
450.62
417.11
385.80
357.70
332.87
310.06
287.38
263.46
238.14
212.57
188.68
168.10
151.47
138.22
126.92
115.96
104.28
91.79
79.29
68.00
58.99
52.69
48.78
46.37
44.44
42.25
39.52
36.43
33.40
30.75
28.55
26.55
24.35
21.58
18.10
14.01
9.62
5.33
1.44
-1.88
-4.63
-6.87
-8.71
-10.23
-11.55
-12.80
-14.15
-15.81
-17.95
-20.62
-23.75
-27.13
-30.57
-34.05
-37.78
-42.24
-48.05
-55.71
-65.38
-76.75
-89.11
-101.58
-113.46
-124.54
-135.11
-145.83
-157.31
-169.74
-182.70
-195.28
-206.52
-215.96
-224.00
-231.89
-241.31
-253.69
-269.56
-288.30
-308.58
-328.91
-348.47
-367.48
-387.18
-409.48
-436.68
-471.18
-514.99
-568.61
-629.77
-692.64
-748.44
-787.77
-803.78
-794.79
-764.79
-721.59
-673.56
-626.72
-583.57
-543.83
-506.34
-470.50
-436.68
-405.45
-376.65
-349.05
-320.93
-291.11
-259.64
-227.88
-198.03
-172.07
-151.09
-134.94
-122.51
-112.35
-103.36
-95.16
-88.11
-82.88
-79.90
-78.89
-78.82
-78.19
-75.47
-69.63
-60.35
-48.03
-33.54
-17.76
-1.43
15.05
31.51
47.77
63.53
78.20
91.05
101.27
108.28
111.84
112.08
109.42
104.47
97.78
89.81
80.89
71.34
61.57
52.19
43.99
37.79
34.26
33.71
36.04
40.80
47.45
55.63
65.34
76.96
90.91
107.43
126.21
146.37
166.73
186.24
204.43
221.54
238.29
255.41
273.14
291.12
308.49
324.48
338.74
351.50
363.45
375.55
388.94
405.16
426.26
454.15
489.00
527.64
563.14
586.63
590.74
573.00
537.15
491.55
445.52
405.62
373.85
348.39
325.87
303.54
280.12
255.45
229.90
204.08
179.06
156.28
136.87
120.54
104.89
85.96
59.52
22.76
-24.42
-78.79
-134.30
-183.21
-217.78
-231.97
-223.08
-192.75
-147.02
-94.89
-45.62
-5.94
21.97
40.45
54.62
69.71
89.00
113.06
140.33
168.37
194.53
216.12
230.21
233.78
224.76
203.30
172.40
137.09
102.15
69.56
37.64
2.15
-40.43
-89.54
-139.03
-178.27
-195.64
-182.49
-136.42
-62.28
29.00
123.31
206.83
269.23
305.44
315.96
305.67
281.65
250.87
218.58
187.83
160.00
135.67
115.22
98.63
84.88
71.72
56.34
36.47
11.76
-16.02
-43.73
-68.21
-87.93
-103.90
-119.01
-136.72
-159.36
-187.07
-217.96
-249.55
-280.39
-310.74
-341.35
-371.90
-400.02
-422.14
-435.47
-439.50
-435.68
-425.32
-407.81
-380.64
-341.85
-292.75
-239.00
-188.16
-145.15
-108.59
-70.99
-23.07
40.29
116.11
193.96
260.56
305.65
325.56
323.54
306.75
282.58
255.62
226.98
195.25
158.24
114.37
63.27
5.90
-55.30
-115.70
-168.65
-206.81
-224.95
-223.18
-208.58
-194.02
-193.65
-217.00
-264.55
-327.23
-390.03
-437.86
-460.94
-456.90
-429.63
-385.90
-332.22
-273.07
-211.26
-148.77
-87.50
-29.27
25.33
78.01
133.35
197.10
273.41
361.49
454.13
539.00
602.45
634.82
634.14
606.77
564.40
519.19
479.42
447.57
421.43
396.99
371.33
344.00
316.53
290.96
268.57
249.30
232.13
215.62
198.57
180.51
161.52
142.13
122.90
104.25
86.19
68.45
50.78
33.02
15.29
-2.36
-20.50
-40.60
-64.32
-91.75
-119.76
-141.82
-150.21
-139.78
-111.34
-72.36
-34.37
-8.11
0.68
-7.23
-26.50
-50.53
-73.97
-93.01
-104.41
-104.71
-91.18
-63.88
-27.28
10.51
40.62
57.18
59.24
50.50
36.90
23.63
13.37
6.26
1.04
-3.65
-8.66
-14.31
-20.75
-28.06
-36.23
-45.08
-54.27
-63.38
-72.21
-80.91
-89.86
-99.49
-109.93
-121.02
-132.30
-143.37
-154.18
-165.18
-177.33
-191.63
-208.71
-228.39
-249.79
-271.61
-292.91
-313.47
-334.14
-356.73
-383.20
-414.95
-451.87
-491.93
-531.23
-564.63
-587.02
-595.09
-588.83
-571.65
-549.22
-526.96
-507.46
-489.32
-468.03
-438.30
-396.67
-343.14
-281.45
-217.96
-159.91
-113.95
-84.77
-74.26
-81.00
-100.39
-125.48
-148.43
-162.54
-163.41
-149.55
-122.23
-84.82
-42.28
-0.14
36.66
65.17
85.55
101.24
117.63
140.21
172.95
217.17
271.30
331.10
389.97
439.55
471.09
478.02
458.91
419.51
371.58
328.67
300.55
289.17
289.06
292.10
293.73
296.56
308.76
338.11
385.54
442.49
493.86
525.06
528.69
507.28
470.70
430.30
393.44
361.47
331.37
299.40
264.31
228.16
195.02
168.38
149.27
135.69
123.74
109.50
90.58
67.16
41.60
17.16
-3.43
-19.17
-31.13
-42.03
-55.10
-72.91
-96.37
-124.61
-155.22
-185.38
-212.92
-237.05
-258.64
-279.71
-302.60
-329.14
-360.50
-397.04
-438.41
-483.00
-527.19
-565.22
-590.48
-598.25
-588.28
-565.60
-538.30
-513.51
-493.42
-474.21
-448.54
-410.18
-357.94
-296.56
-234.13
-177.68
-129.82
-88.05
-46.72
-0.03
55.62
120.32
190.52
259.72
319.27
359.91
373.81
357.27
312.69
249.45
182.18
126.84
95.59
92.73
113.19
144.75
172.61
184.52
173.92
140.28
87.18
20.25
-53.82
-127.14
-190.12
-232.43
-245.79
-227.07
-180.06
-114.52
-42.64
24.65
80.27
120.75
144.70
151.08
139.17
109.98
67.84
20.57
-22.69
-54.45
-71.54
-75.56
-71.39
-64.72
-60.31
-61.72
-71.58
-91.76
-122.63
-162.00
-205.01
-245.05
-275.92
-293.66
-297.39
-288.56
-269.69
-243.18
-211.04
-174.84
-135.51
-93.29
-48.16
-1.48
42.42
76.32
92.60
87.38
63.62
30.79
0.62
-18.26
-24.04
-21.19
-16.40
-13.64
-11.64
-5.32
10.45
37.28
72.34
110.48
147.69
183.11
218.42
255.22
292.48
326.23
351.85
367.58
376.42
384.97
399.49
421.20
444.42
458.51
453.06
423.15
371.57
307.09
239.75
176.41
118.81
64.81
11.04
-44.94
-104.19
-167.02
-233.33
-302.21
-370.71
-433.15
-482.03
-510.40
-514.63
-496.11
-460.97
-417.76
-374.73
-337.60
-308.92
-288.76
-275.86
-268.62
-265.45
-264.75
-264.86
-264.38
-262.46
-259.00
-254.44
-249.38
-244.16
-238.54
-231.79
-222.96
-211.23
-196.17
-177.82
-156.66
-133.33
-108.50
-82.79
-56.73
-30.81
-5.46
18.99
42.47
65.17
87.45
109.62
131.67
153.14
173.18
190.82
205.55
217.57
227.90
238.11
249.64
263.28
278.84
295.48
312.14
328.24
344.18
361.24
381.38
406.82
439.87
482.20
533.91
592.23
650.93
701.16
733.81
742.75
727.09
691.54
644.19
593.25
544.15
498.75
456.42
416.09
377.83
342.78
311.98
285.01
259.52
232.09
199.69
161.14
117.41
71.16
25.25
-18.51
-60.08
-100.98
-143.37
-189.24
-240.04
-296.63
-359.22
-426.86
-496.49
-562.54
-617.61
-654.48
-668.73
-660.59
-635.03
-599.95
-563.43
-531.36
-506.34
-487.99
-474.15
-462.02
-448.91
-432.65
-411.86
-386.13
-355.81
-321.77
-284.69
-244.65
-201.38
-154.34
-103.01
-46.79
14.93
81.91
151.48
217.04
268.42
294.69
288.94
252.53
196.01
136.01
88.92
65.04
65.90
86.17
118.49
157.77
202.08
250.08
297.66
335.91
353.26
340.57
296.21
227.87
150.00
77.46
19.47
-23.25
-56.91
-89.33
-124.60
-160.50
-189.81
-204.59
-200.50
-178.83
-145.50
-107.94
-71.91
-39.65
-10.50
17.45
45.71
74.51
103.56
133.09
164.92
202.28
247.65
299.95
353.22
397.35
421.57
419.07
389.96
341.06
282.69
223.87
168.85
116.65
63.34
5.16
-59.28
-128.77
-200.50
-270.97
-336.34
-392.28
-434.16
-458.25
-463.25
-451.08
-426.67
-396.28
-365.53
-338.23
-315.97
-298.72
-285.57
-275.07
-265.37
-254.27
-239.70
-220.40
-196.56
-169.68
-141.83
-114.76
-88.85
-62.95
-34.89
-2.51
35.22
77.59
122.53
167.31
209.76
249.13
286.34
323.59
363.86
410.26
465.09
528.71
598.26
667.20
726.39
766.62
781.84
771.50
740.55
697.15
649.22
601.55
555.15
508.64
460.70
411.72
363.81
319.37
279.29
242.17
204.83
163.99
117.96
67.44
15.49
-33.90
-77.41
-113.82
-144.52
-173.28
-205.13
-244.79
-294.83
-354.06
-416.74
-473.43
-513.51
-528.17
-513.05
-469.21
-402.45
-321.66
-237.41
-160.53
-100.71
-64.45
-53.21
-63.04
-86.50
-116.48
-149.58
-186.70
-230.48
-281.06
-333.46
-378.63
-407.98
-417.88
-411.65
-397.34
-382.91
-372.21
-363.99
-354.01
-338.57
-317.00
-291.52
-265.41
-241.00
-218.42
-196.07
-172.04
-145.42
-116.96
-88.86
-63.70
-43.10
-27.45
-15.99
-7.29
0.16
7.70
16.39
27.05
40.50
57.75
79.43
105.45
134.92
166.59
199.61
234.07
270.89
311.20
356.29
406.15
459.35
513.23
564.63
610.12
645.93
668.12
673.61
663.61
642.23
614.92
586.40
559.13
533.07
506.37
476.76
443.31
410.83
384.27
364.89
348.75
328.89
299.21
257.12
204.79
148.67
104.02
84.34
94.34
127.16
167.84
199.98
211.52
198.24
164.58
129.71
113.78
128.25
171.91
234.80
305.06
373.38
434.30
431.80
334.35
147.65
-86.82
-319.76
-519.52
-675.84
-790.86
-870.81
-918.11
-933.93
-918.95
-878.74
-824.79
-769.71
-721.70
-682.83
-650.55
-623.03
-591.77
-549.74
-495.99
-435.90
-377.15
-325.39
-282.65
-248.21
-220.01
-191.62
-157.29
-115.12
-67.60
-19.36
25.63
65.31
99.30
128.46
156.31
186.67
221.73
261.71
305.77
352.84
401.40
448.57
489.77
520.12
535.48
533.57
514.89
482.80
442.24
398.01
353.40
310.07
268.81
230.41
195.77
165.40
138.73
113.86
88.20
59.48
26.78
-9.23
-46.80
-84.00
-119.48
-152.86
-184.73
-216.55
-250.47
-289.02
-334.09
-385.37
-438.97
-487.01
-519.37
-527.18
-506.81
-462.16
-403.83
-345.54
-299.33
-272.23
-265.15
-274.25
-292.97
-313.87
-329.46
-332.95
-319.51
-288.08
-242.68
-191.76
-145.37
-111.03
-90.50
-79.01
-67.48
-46.79
-12.32
33.18
80.23
116.06
130.37
120.14
91.52
57.75
34.07
31.80
54.19
95.91
145.73
191.06
222.10
234.01
227.10
205.98
178.33
153.60
140.93
146.37
170.30
206.06
241.34
261.92
256.53
221.27
161.26
88.96
19.74
-32.94
-61.46
-65.41
-50.53
-26.71
-5.38
2.65
-10.68
-48.66
-108.20
-179.71
-249.20
-302.11
-328.00
-323.71
-293.58
-246.96
-194.01
-142.23
-95.15
-52.77
-13.04
26.76
69.38
116.96
170.13
227.11
283.30
332.24
367.67
385.71
385.60
369.25
339.67
299.84
252.93
203.19
156.42
118.80
94.36
82.40
76.95
69.00
50.82
19.93
-19.75
-60.26
-94.08
-118.37
-136.05
-153.24
-174.59
-199.45
-221.36
-231.32
-222.80
-195.28
-154.30
-107.99
-62.37
-18.72
25.44
72.35
119.98
160.89
185.03
184.97
160.42
119.10
73.45
35.07
10.20
-1.37
-4.07
-2.81
-0.10
4.13
10.79
19.25
26.32
27.30
18.38
-1.13
-27.96
-56.02
-78.64
-91.08
-92.11
-84.13
-71.72
-59.30
-48.78
-38.78
-25.78
-6.74
18.45
46.47
72.39
92.66
107.34
119.76
133.63
149.62
163.95
170.26
163.47
142.96
112.94
79.87
49.14
23.23
2.57
-12.39
-19.81
-16.92
-2.11
23.36
55.16
87.69
116.33
138.91
155.43
166.42
171.57
169.32
157.81
136.14
104.93
66.36
23.75
-19.09
-58.38
-91.16
-116.29
-135.16
-151.26
-168.52
-189.30
-212.94
-236.09
-254.80
-267.20
-275.17
-283.75
-298.51
-322.34
-353.41
-385.33
-409.47
-418.19
-407.33
-377.14
-331.49
-276.04
-216.16
-155.53
-95.66
-36.23
23.85
85.59
149.31
214.49
279.77
342.58
398.96
443.75
471.64
479.00
465.86
436.23
396.98
355.32
316.22
281.19
248.87
216.76
182.78
146.12
106.95
65.65
22.41
-22.56
-68.88
-116.10
-163.73
-211.28
-257.77
-301.29
-338.85
-366.96
-383.11
-386.85
-379.55
-363.28
-339.56
-309.26
-273.93
-237.04
-203.86
-179.33
-164.83
-156.03
-143.59
-116.93
-69.42
-2.30
74.94
148.03
203.62
234.30
240.79
230.42
213.02
197.04
187.39
185.61
191.12
202.67
218.96
237.89
255.96
268.64
272.00
264.63
248.89
230.38
215.79
210.18
215.02
227.48
241.43
249.50
245.45
225.93
191.56
146.95
99.59
57.81
28.08
12.88
10.20
14.55
19.48
20.41
16.19
8.66
0.56
-6.57
-13.87
-24.23
-40.60
-64.06
-93.49
-126.71
-161.84
-197.38
-230.90
-257.85
-271.92
-268.06
-245.95
-211.79
-176.50
-150.34
-137.30
-132.47
-124.71
-103.33
-64.97
-16.11
30.43
62.69
76.42
76.62
73.25
74.12
79.95
84.52
79.66
61.52
33.32
3.73
-18.83
-30.74
-34.49
-35.96
-40.45
-49.70
-62.38
-76.63
-91.64
-107.87
-125.35
-141.91
-153.36
-155.17
-144.75
-122.71
-92.56
-59.04
-26.68
1.12
22.41
35.83
40.14
33.67
14.77
-17.02
-58.47
-101.43
-133.83
-143.91
-125.90
-83.80
-30.83
16.18
44.25
49.41
36.65
15.98
-3.06
-15.42
-20.44
-19.97
-16.14
-10.70
-5.60
-3.61
-7.25
-17.49
-32.88
-49.97
-65.22
-76.59
-84.15
-89.46
-94.02
-98.09
-100.36
-99.03
-93.06
-83.11
-71.37
-60.07
-49.75
-38.61
-23.73
-3.72
18.97
37.68
44.06
32.65
5.05
-29.74
-59.11
-73.09
-68.69
-50.30
-26.15
-3.77
13.44
26.59
39.38
55.64
76.99
102.27
127.35
146.07
152.15
142.03
117.72
87.39
63.09
55.66
69.64
101.08
139.77
174.43
197.73
208.14
208.29
201.65
189.97
173.11
150.67
123.82
95.71
70.37
50.75
37.41
28.62
21.33
12.44
-0.30
-18.10
-41.20
-69.29
-101.91
-138.93
-180.95
-229.09
-284.08
-344.49
-405.61
-459.58
-497.23
-511.16
-498.23
-460.19
-402.10
-329.92
-248.64
-162.65
-77.35
-0.33
59.07
92.28
94.63
67.39
17.68
-43.37
-103.39
-151.25
-178.72
-181.60
-159.94
-117.54
-60.26
6.11
77.62
152.12
227.68
300.32
363.03
407.32
426.16
417.05
383.29
332.81
275.37
219.52
170.73
130.67
98.08
69.85
42.33
12.26
-22.58
-63.40
-110.35
-162.25
-216.10
-266.26
-304.60
-322.54
-314.83
-283.25
-237.14
-190.41
-155.16
-135.87
-127.51
-119.04
-100.09
-66.99
-24.40
18.02
51.35
71.60
80.25
81.25
77.12
67.01
47.32
14.22
-34.06
-96.18
-167.70
-241.82
-309.82
-362.77
-393.14
-397.29
-376.71
-337.57
-288.05
-234.97
-181.94
-129.99
-79.40
-31.14
12.79
50.59
81.70
106.30
123.64
130.20
120.06
87.85
33.18
-37.11
-109.72
-169.55
-205.49
-213.89
-198.25
-165.58
-122.22
-72.25
-19.05
31.70
71.08
89.00
79.48
44.73
-4.26
-52.21
-86.41
-101.83
-101.69
-93.40
-83.49
-73.83
-61.79
-43.35
-16.13
19.28
60.43
104.62
149.50
192.40
229.59
256.58
269.61
267.76
254.18
235.86
221.67
219.40
232.79
259.81
293.50
324.86
345.51
350.28
338.28
311.76
274.41
229.98
181.64
132.74
87.48
50.56
25.97
15.79
19.10
31.81
47.94
61.04
66.90
65.26
57.63
45.93
31.55
15.34
-1.63
-16.99
-28.63
-34.03
-30.13
-18.77
-6.21
1.38
1.14
-4.97
-11.68
-16.46
-18.00
-12.54
-1.19
10.85
19.02
19.91
11.13
-8.71
-44.83
-99.21
-163.48
-232.26
-304.37
-377.00
-445.18
-502.11
-540.90
-563.06
-571.40
-560.41
-531.79
-493.50
-450.71
-404.82
-354.62
-259.49
-106.67
35.56
137.58
205.77
242.22
254.42
253.75
251.58
255.02
258.50
254.23
246.10
236.77
227.54
223.52
229.68
247.48
273.74
297.41
309.36
312.52
309.83
302.56
294.24
288.58
287.49
290.04
289.98
282.04
268.85
253.84
239.22
226.93
216.42
204.17
186.20
159.70
126.94
96.00
73.27
59.56
51.54
44.04
33.53
20.03
6.26
-3.39
-3.94
7.64
31.76
66.23
105.63
141.81
165.88
171.00
155.12
121.41
75.97
24.55
-29.23
-82.88
-132.66
-172.00
-193.43
-192.87
-173.46
-146.52
-127.47
-129.46
-157.16
-205.02
-259.77
-306.77
-336.02
-344.95
-337.54
-321.01
-302.41
-286.77
-276.95
-273.95
-276.97
-283.12
-287.35
-283.25
-264.92
-229.67
-180.04
-124.42
-75.49
-46.76
-48.18
-82.14
-142.13
-214.07
-280.93
-328.27
-348.63
-343.08
-318.93
-285.69
-250.82
-218.21
-188.67
-161.84
-137.91
-117.75
-101.92
-89.74
-79.02
-66.88
-51.32
-32.20
-11.39
8.06
23.47
33.73
39.86
44.49
50.64
60.38
73.94
89.64
104.66
116.40
123.58
126.83
128.48
131.58
138.72
151.09
168.08
187.47
206.50
222.93
236.13
247.69
261.25
281.34
311.41
351.79
398.38
443.27
476.62
489.73
477.66
441.01
386.24
324.02
265.96
220.78
191.66
175.74
166.26
155.93
139.40
114.50
81.72
43.44
3.30
-33.98
-63.76
-83.32
-93.77
-100.59
-111.39
-131.72
-161.36
-193.56
-218.28
-227.83
-221.07
-203.46
-183.30
-166.48
-153.49
-140.03
-120.69
-92.85
-58.40
-22.18
11.53
41.74
71.09
103.38
140.01
178.12
211.03
231.20
233.52
217.23
185.57
144.71
102.37
66.31
42.60
33.67
37.05
45.91
51.74
47.59
30.43
1.17
-37.38
-82.36
-131.41
-181.45
-227.35
-262.27
-280.08
-278.08
-258.53
-227.50
-191.69
-155.58
-120.42
-85.01
-47.47
-6.38
38.62
86.54
134.37
176.86
207.41
220.40
213.94
191.02
158.37
123.55
91.96
65.77
45.29
31.39
26.99
36.53
63.56
108.16
165.87
228.65
287.20
333.27
360.91
366.87
350.92
316.12
268.95
218.24
173.07
140.27
122.70
118.59
122.45
127.28
127.26
119.81
106.33
91.07
78.76
72.18
71.26
73.91
77.98
82.57
87.94
93.73
97.46
94.38
79.59
51.07
11.64
-31.74
-71.56
-103.77
-129.59
-153.94
-181.55
-212.84
-242.47
-261.50
-261.86
-240.71
-202.24
-156.00
-113.13
-82.41
-68.21
-70.67
-86.97
-112.38
-140.56
-163.85
-174.38
-166.56
-140.12
-101.60
-63.24
-38.67
-37.16
-59.39
-96.91
-135.89
-163.05
-170.60
-157.62
-128.06
-87.25
-39.67
10.72
58.96
98.20
120.75
121.28
100.17
64.43
25.75
-3.99
-17.22
-13.20
2.77
22.54
38.75
47.35
47.80
41.40
28.68
8.04
-23.37
-67.06
-120.39
-175.93
-223.83
-255.86
-269.24
-267.05
-255.83
-241.53
-226.66
-210.13
-189.67
-164.72
-137.66
-112.86
-94.19
-82.90
-76.97
-72.71
-67.15
-59.95
-53.60
-52.10
-58.55
-73.02
-92.05
-110.20
-122.82
-128.29
-128.80
-129.00
-133.51
-144.57
-161.00
-178.78
-192.94
-199.39
-196.32
-184.29
-165.64
-143.46
-120.72
-99.37
-80.20
-62.85
-46.29
-29.47
-11.69
7.33
28.05
50.92
75.82
100.92
122.40
135.40
136.47
126.06
109.02
92.86
84.14
85.65
95.31
108.29
120.63
131.68
143.96
160.42
181.47
204.05
223.31
235.14
238.54
236.21
233.19
234.67
243.45
259.01
278.12
297.06
312.31
321.43
323.42
318.75
308.89
295.51
279.45
260.90
241.44
222.25
203.86
186.27
169.74
155.50
145.20
139.21
136.97
140.54
150.11
163.76
178.15
189.98
197.35
199.40
194.70
184.19
177.26
182.69
204.78
240.95
283.15
322.24
351.47
367.11
373.29
387.16
423.27
486.74
570.69
660.96
744.12
812.16
861.27
838.23
716.82
503.75
239.29
-26.56
-258.98
-444.38
-569.75
-652.63
-705.76
-726.41
-711.01
-660.62
-582.85
-492.36
-401.55
-320.30
-258.62
-228.35
-229.02
-253.18
-287.45
-318.20
-336.99
-341.94
-336.55
-327.87
-319.16
-305.67
-282.36
-247.67
-205.55
-163.38
-127.80
-102.64
-88.25
-80.94
-73.30
-59.83
-38.70
-12.06
15.81
40.93
61.39
77.10
89.96
103.38
119.53
138.37
157.40
175.59
190.89
202.12
209.16
212.91
214.76
215.70
216.01
215.20
212.30
206.02
195.56
180.71
161.71
139.14
113.75
86.29
57.59
28.63
0.27
-26.31
-49.81
-69.04
-83.14
-91.62
-94.50
-92.19
-85.41
-75.37
-63.36
-50.76
-38.91
-28.99
-21.89
-18.10
-17.68
-20.30
-25.44
-32.42
-40.54
-49.16
-57.69
-65.65
-72.53
-77.83
-81.57
-83.78
-84.39
-83.39
-80.84
-77.64
-74.74
-72.72
-71.61
-71.41
-71.68
-71.90
-71.85
-71.63
-72.41
-75.30
-80.70
-88.01
-97.01
-106.86
-116.44
-125.10
-132.67
-141.03
-152.10
-166.39
-182.80
-202.32
-224.61
-247.91
-270.11
-288.48
-304.97
-322.20
-341.77
-364.67
-397.85
-444.13
-498.95
-550.87
-582.96
-588.68
-569.13
-532.04
-490.35
-467.89
-479.34
-524.11
-588.71
-650.89
-704.60
-752.12
-797.98
-845.56
-906.34
-980.32
-1055.03
-1112.25
-1131.77
-1118.43
-1086.58
-1049.75
-925.93
-680.55
-338.37
29.74
305.11
491.81
610.81
679.76
723.20
751.50
757.23
736.28
692.96
638.69
592.91
557.18
528.26
503.99
482.19
451.80
406.74
348.95
286.99
236.29
198.66
171.98
154.36
143.20
130.25
110.35
83.60
54.83
33.76
21.97
18.68
22.93
32.95
44.04
53.08
59.87
67.13
80.50
101.86
131.60
169.20
212.67
258.32
302.71
343.78
381.26
416.79
451.35
486.16
522.85
563.09
607.97
656.67
705.39
747.45
774.90
781.33
764.48
727.28
676.74
621.17
567.21
518.27
474.72
435.35
399.03
365.35
334.35
305.85
279.10
253.24
227.97
204.16
183.46
167.68
157.68
152.78
150.83
148.91
144.40
135.72
122.61
105.63
85.38
61.89
34.37
1.68
-36.89
-80.97
-129.02
-178.59
-227.35
-273.76
-317.58
-359.87
-402.75
-448.90
-500.75
-559.35
-622.82
-685.70
-739.33
-773.75
-780.65
-756.35
-703.76
-632.30
-555.35
-486.01
-433.10
-398.64
-377.93
-362.26
-342.51
-311.97
-267.68
-210.08
-142.35
-70.18
-1.88
52.07
80.64
76.01
37.27
-27.76
-103.96
-173.77
-222.97
-244.64
-239.78
-215.14
-179.24
-139.10
-98.80
-59.78
-21.80
15.84
53.43
90.03
123.10
149.21
165.32
170.64
167.66
161.43
156.61
154.73
152.50
143.57
122.46
88.49
47.04
7.27
-22.44
-38.44
-42.71
-40.57
-36.78
-32.85
-26.93
-15.95
1.87
25.98
54.18
84.89
118.39
156.13
198.08
240.36
275.02
292.88
288.18
262.43
225.06
189.70
168.57
167.69
185.36
214.54
246.50
273.72
290.72
293.91
281.56
254.97
219.68
185.11
161.46
155.42
166.71
187.98
207.92
215.98
205.94
177.08
132.81
78.70
20.96
-33.95
-80.30
-113.96
-133.43
-140.27
-138.35
-132.10
-124.90
-118.08
-110.94
-101.53
-87.85
-69.01
-46.28
-23.69
-7.72
-5.37
-21.05
-53.63
-95.60
-135.17
-160.81
-165.99
-151.77
-125.73
-98.19
-77.59
-67.25
-65.07
-65.74
-64.23
-59.23
-53.55
-52.13
-58.37
-71.41
-86.40
-97.83
-103.53
-106.13
-111.63
-124.87
-145.24
-166.06
-178.37
-176.78
-163.09
-145.01
-129.20
-117.44
-105.44
-86.57
-57.25
-20.57
14.61
38.49
45.76
41.31
34.77
34.64
43.78
59.17
74.88
85.65
88.96
84.66
79.16
78.35
85.41
100.36
121.81
148.58
179.84
214.35
249.50
289.00
335.56
388.85
444.57
496.40
539.01
569.79
588.95
563.60
477.59
335.86
164.36
-5.74
-153.91
-273.51
-366.39
-432.31
-480.47
-510.96
-522.64
-516.74
-498.15
-473.39
-447.45
-423.64
-402.57
-384.61
-364.25
-337.04
-301.54
-259.90
-216.29
-174.73
-136.08
-100.29
-68.00
-36.31
-2.67
34.25
73.91
114.35
153.14
191.23
229.15
265.78
301.09
334.89
367.35
399.08
431.26
465.52
506.89
556.83
610.73
659.50
692.33
701.32
684.42
645.92
569.46
454.07
311.98
164.21
30.55
-77.87
-158.29
-212.62
-244.71
-259.37
-258.39
-244.80
-222.97
-197.96
-173.71
-151.83
-132.28
-114.51
-98.61
-82.46
-65.20
-47.54
-31.44
-18.68
-9.73
-4.03
-0.55
1.67
4.48
9.02
15.36
21.99
26.99
28.59
25.09
14.36
0.24
-14.75
-28.60
-40.04
-49.93
-59.57
-70.26
-82.89
-97.79
-114.43
-131.92
-148.45
-162.16
-174.33
-186.44
-199.90
-215.52
-233.49
-253.43
-275.17
-297.99
-320.66
-345.04
-370.97
-396.17
-417.59
-434.06
-447.91
-464.65
-489.34
-523.06
-565.57
-609.37
-642.78
-655.15
-641.94
-606.42
-557.30
-504.03
-424.72
-312.91
-176.14
-33.94
93.17
192.68
261.57
303.89
327.05
338.73
340.07
332.19
316.60
295.83
273.06
251.32
233.28
220.87
214.96
211.61
208.24
203.83
199.45
197.48
200.48
210.40
228.13
253.29
277.13
294.02
301.20
299.15
290.43
278.12
264.95
253.00
243.77
236.73
231.03
223.91
211.01
187.61
151.09
103.02
49.57
-0.52
-40.02
-64.98
-76.42
-78.65
-76.52
-73.09
-69.04
-63.75
-56.98
-49.71
-43.44
-39.52
-38.14
-38.12
-37.62
-34.97
-29.67
-22.59
-15.61
-10.59
-8.86
-10.62
-15.05
-20.51
-25.41
-28.81
-30.70
-31.91
-33.64
-36.86
-41.96
-48.37
-54.90
-60.17
-63.22
-63.83
-62.83
-61.76
-62.38
-65.94
-72.58
-81.41
-90.87
-99.57
-106.53
-111.82
-116.28
-121.05
-127.20
-135.37
-146.18
-160.00
-176.19
-192.25
-203.89
-206.09
-195.16
-170.76
-136.18
-97.93
-63.10
-36.71
-20.01
-11.12
-6.35
-1.61
3.82
11.26
21.72
35.95
54.34
77.02
102.96
130.30
157.10
182.02
205.33
228.44
253.74
283.92
321.26
364.69
408.96
445.58
465.55
463.25
438.35
395.81
343.51
289.42
237.60
188.17
139.50
90.98
44.45
2.93
-31.33
-63.41
-94.61
-123.26
-145.91
-159.71
-163.70
-158.64
-146.79
-131.15
-114.53
-98.50
-84.05
-71.82
-62.08
-54.57
-48.41
-42.72
-36.89
-30.60
-24.09
-17.81
-12.36
-8.20
-5.38
-3.46
-1.95
-0.45
1.20
2.29
2.39
0.71
-3.52
-10.84
-21.50
-35.71
-53.63
-68.99
-80.30
-87.27
-90.69
-91.36
-89.80
-86.31
-81.21
-74.70
-66.94
-59.02
-51.00
-43.21
-35.70
-28.27
-20.60
-12.55
-3.86
5.85
13.45
20.73
28.60
37.66
48.34
60.94
75.09
90.40
106.49
122.26
137.55
152.34
166.70
180.69
194.51
207.63
219.62
230.08
238.19
243.82
246.97
247.38
244.01
239.94
235.71
230.99
224.98
216.09
203.45
187.53
168.86
147.86
125.02
99.81
71.54
39.52
2.03
-40.74
-84.53
-125.26
-160.14
-187.01
-205.90
-218.62
-228.25
-241.14
-260.94
-283.36
-304.96
-324.41
-340.69
-354.53
-368.33
-385.61
-414.95
-461.55
-518.88
-581.39
-644.94
-702.09
-744.23
-764.17
-758.76
-736.57
-707.22
-669.25
-624.60
-577.67
-528.33
-474.00
-412.18
-303.29
-139.55
6.66
106.45
165.84
185.77
173.03
140.51
104.05
77.42
61.63
53.02
54.44
61.91
67.41
67.47
62.03
52.10
37.83
13.52
-23.69
-65.22
-104.17
-137.05
-160.57
-173.35
-176.48
-172.89
-168.84
-167.82
-165.26
-157.29
-142.28
-118.83
-86.65
-46.98
-2.19
43.43
86.46
127.03
164.69
198.15
226.84
250.91
271.29
289.49
306.65
323.82
342.19
361.60
380.55
397.50
411.56
422.84
432.62
443.24
457.72
478.78
507.38
541.23
574.61
599.01
605.75
589.45
550.19
493.75
428.92
363.83
303.00
246.85
192.39
135.12
71.19
-1.01
-80.00
-161.29
-238.25
-303.82
-351.81
-379.84
-390.27
-388.76
-381.72
-373.64
-366.24
-359.20
-351.57
-340.21
-323.22
-300.27
-272.01
-239.09
-201.68
-160.20
-116.08
-71.72
-24.59
26.91
82.02
137.56
190.02
237.43
279.40
316.13
347.75
382.67
426.83
480.71
539.22
595.56
645.26
686.99
721.29
749.34
783.06
830.68
892.40
960.27
1023.63
1074.75
1110.34
1130.13
1066.27
884.94
597.86
259.29
-68.91
-347.82
-565.70
-727.50
-844.52
-928.05
-976.69
-990.13
-973.76
-939.39
-900.23
-864.92
-836.65
-815.30
-798.92
-777.21
-742.97
-695.24
-639.08
-580.99
-524.38
-468.36
-413.45
-359.13
-300.48
-235.35
-165.83
-97.62
-36.77
13.34
52.21
80.86
100.94
116.06
128.61
139.39
148.27
155.74
163.92
176.28
196.50
227.68
271.61
326.59
386.70
442.55
483.80
502.50
495.42
464.71
416.69
358.84
297.13
234.70
172.08
108.32
42.41
-25.68
-94.37
-159.99
-217.27
-260.13
-283.24
-283.74
-261.99
-220.90
-164.32
-95.85
-18.89
61.69
138.27
200.93
240.10
250.55
233.81
197.80
153.42
109.99
71.96
38.55
5.64
-31.28
-74.80
-124.60
-177.69
-229.33
-274.20
-307.84
-327.66
-333.44
-326.84
-310.36
-286.59
-257.98
-227.08
-196.83
-170.11
-148.98
-133.78
-122.92
-113.60
-103.19
-90.30
-74.98
-58.36
-41.93
-27.21
-15.85
-9.20
-7.79
-10.88
-16.36
-21.51
-24.21
-23.71
-20.62
-16.31
-11.98
-8.06
-4.37
-0.45
3.88
8.12
11.00
10.68
5.45
-5.32
-20.26
-35.71
-46.46
-47.36
-35.25
-10.27
24.10
62.10
97.54
125.40
142.86
149.38
146.20
135.67
120.59
103.54
86.46
70.36
55.41
41.34
27.96
15.42
4.22
-4.93
-11.44
-15.00
-15.74
-14.17
-10.98
-6.83
-2.06
3.28
9.29
15.83
22.32
27.69
30.61
29.93
25.29
17.58
9.07
2.94
2.34
9.22
23.26
41.77
60.34
74.43
81.01
79.63
72.35
62.59
53.61
47.39
44.34
43.74
44.53
45.81
47.00
47.61
47.10
44.84
40.37
33.65
25.29
16.32
7.91
1.00
-4.12
-7.64
-10.19
-12.46
-14.84
-17.33
-19.46
-20.54
-20.03
-17.78
-14.15
-9.80
-5.32
-0.96
3.39
7.84
12.09
15.31
16.41
14.67
10.17
3.96
-2.37
-7.40
-10.49
-11.91
-12.66
-13.86
-16.33
-20.28
-25.10
-29.56
-32.03
-31.04
-25.90
-17.13
-6.40
4.12
12.67
18.69
22.85
26.46
30.59
35.40
40.23
44.14
46.57
47.61
47.59
46.58
43.99
38.83
30.37
18.82
5.61
-7.11
-17.17
-23.09
-24.53
-22.08
-16.82
-9.96
-2.57
4.48
10.53
15.21
18.53
20.82
22.55
24.11
25.59
26.70
26.98
26.03
23.79
20.76
17.91
16.33
16.67
18.54
20.15
18.51
10.40
-6.18
-30.70
-59.72
-87.85
-109.73
-121.92
-123.63
-116.09
-101.16
-80.29
-54.65
-26.28
0.94
21.64
30.85
26.49
10.64
-11.33
-33.27
-51.05
-63.63
-72.23
-78.15
-81.28
-80.04
-72.84
-59.63
-42.51
-24.78
-9.31
2.76
12.24
20.83
29.79
39.02
47.18
52.46
53.51
50.15
43.39
35.05
27.04
20.70
16.38
13.51
10.97
7.67
3.07
-2.63
-8.65
-13.97
-17.77
-19.64
-19.61
-17.88
-14.58
-9.64
-2.80
6.11
16.90
28.83
40.66
50.87
58.12
61.62
61.44
58.41
53.90
49.26
45.46
42.84
41.23
40.33
40.00
40.40
41.77
43.90
45.89
46.30
43.80
37.90
29.31
19.72
10.98
4.34
-0.01
-2.69
-4.56
-6.18
-7.61
-8.68
-9.27
-9.46
-9.41
-9.18
-8.66
-7.83
-7.04
-7.02
-8.63
-12.27
-17.52
-23.08
-27.30
-28.92
-27.63
-24.24
-20.32
-17.51
-16.82
-18.18
-20.39
-21.63
-20.21
-15.37
-7.74
0.82
7.97
11.87
11.99
9.21
5.35
2.22
0.86
1.18
2.35
3.35
3.58
2.93
1.60
-0.20
-2.43
-5.04
-7.70
-9.75
-10.39
-9.13
-6.22
-2.71
-0.05
0.55
-1.25
-4.81
-8.76
-11.68
-12.70
-11.78
-9.59
-7.15
-5.31
-4.49
-4.54
-4.89
-4.92
-4.31
-3.23
-2.26
-2.02
-2.77
-4.20
-5.60
-6.22
-5.76
-4.51
-3.23
-2.62
-2.90
-3.66
-4.14
-3.69
-2.16
-0.07
1.72
2.51
2.13
1.06
0.19
0.31
1.71
3.98
6.33
7.98
8.59
8.37
7.83
7.44
7.33
7.24
6.79
5.75
4.23
2.61
1.30
0.49
0.05
-0.32
-0.96
-1.97
-3.15
-4.11
-4.46
-4.08
-3.20
-2.39
-2.25
-3.10
-4.83
-6.93
-8.71
-9.69
-9.82
-9.45
-9.10
-9.17
-9.74
-10.56
-11.24
-11.47
-11.15
-10.47
-9.70
-9.10
-8.68
-8.28
-7.60
-6.44
-4.87
-3.21
-1.96
-1.41
-1.54
-1.95
-2.07
-1.54
-0.39
0.96
1.95
2.24
1.94
1.53
1.62
2.59
4.45
6.82
9.16
11.05
12.35
13.12
13.48
13.45
12.87
11.59
9.66
7.43
5.42
4.14
3.73
3.93
4.18
3.91
2.84
1.12
-0.82
-2.52
-3.66
-4.27
-4.58
-4.89
-5.42
-6.18
-7.02
-7.73
-8.13
-8.29
-8.42
-8.83
-9.72
-11.06
-12.58
-13.89
-14.66
-14.78
-14.40
-13.82
-13.31
-12.97
-12.66
-12.10
-11.08
-9.62
-7.95
-6.43
-5.27
-4.40
-3.45
-2.01
0.11
2.70
5.22
7.12
8.13
8.46
8.60
9.05
9.95
11.02
11.68
11.49
10.38
8.71
7.11
6.11
5.91
6.28
6.78
6.91
6.45
5.49
4.34
3.42
3.02
3.13
3.54
3.87
3.82
3.36
2.65
2.04
1.78
1.91
2.18
2.22
1.76
0.82
-0.28
-1.10
-1.40
-1.23
-1.02
-1.25
-2.16
-3.60
-5.15
-6.36
-7.05
-7.44
-7.94
-8.78
-9.81
-10.49
-10.18
-8.57
-5.94
-3.08
-0.92
-0.00
-0.26
-1.05
-1.62
-1.48
-0.70
0.20
0.73
0.73
0.53
0.73
1.77
3.60
5.66
7.21
7.79
7.45
6.77
6.44
6.89
8.00
9.20
9.72
9.07
7.26
4.85
2.64
1.34
1.17
1.81
2.54
2.63
1.69
-0.09
-2.09
-3.55
-4.02
-3.58
-2.75
-2.21
-2.36
-3.15
-4.17
-4.91
-5.26
-5.50
-6.20
-7.74
-9.97
-12.18
-13.48
-13.29
-11.76
-9.72
-8.21
-7.97
-8.95
-10.49
-11.65
-11.80
-10.88
-9.36
-7.84
-6.65
-5.70
-4.56
-2.85
-0.47
2.18
4.46
5.75
5.82
4.89
3.62
2.72
2.68
3.52
4.84
6.06
6.74
6.86
6.81
7.09
8.01
9.41
10.70
11.16
10.35
8.42
6.11
4.39
3.97
4.95
6.75
8.37
8.97
8.28
6.72
5.17
4.47
4.94
6.18
7.31
7.45
6.19
3.86
1.29
-0.67
-1.58
-1.65
-1.49
-1.75
-2.70
-4.16
-5.71
-6.97
-7.90
-8.73
-9.79
-11.16
-12.58
-13.50
-13.45
-12.28
-10.34
-8.32
-6.90
-6.42
-6.73
-7.28
-7.48
-7.00
-5.98
-4.83
-3.93
-3.36
-2.85
-1.93
-0.30
1.98
4.52
6.76
8.29
8.99
9.03
8.75
8.46
8.37
8.55
8.98
9.58
10.25
10.93
11.58
12.21
12.77
13.16
13.16
12.54
11.23
9.36
7.29
5.43
4.01
3.00
2.13
1.17
0.08
-0.93
-1.55
-1.60
-1.21
-0.78
-0.77
-1.50
-3.03
-5.18
-7.65
-10.17
-12.57
-14.75
-16.64
-18.20
-19.32
-19.88
-19.73
-18.75
-16.97
-14.65
-12.23
-10.18
-8.77
-7.95
-7.31
-6.40
-4.97
-3.14
-1.39
-0.20
0.16
-0.16
-0.67
-0.82
-0.28
0.91
2.40
3.77
4.80
5.60
6.44
7.53
8.78
9.79
10.07
9.31
7.62
5.48
3.57
2.36
1.93
1.99
2.05
1.75
1.06
0.18
-0.60
-1.15
-1.58
-2.15
-3.01
-4.08
-5.01
-5.38
-5.01
-4.14
-3.38
-3.38
-4.46
-6.44
-8.68
-10.41
-11.16
-10.91
-10.06
-9.17
-8.64
-8.59
-8.81
-8.96
-8.67
-7.76
-6.27
-4.47
-2.69
-1.23
-0.16
0.62
1.30
2.01
2.68
3.10
3.05
2.59
2.08
2.06
2.94
4.67
6.67
8.08
8.22
6.98
4.93
3.03
2.10
2.41
3.52
4.59
4.84
4.01
2.43
0.77
-0.32
-0.62
-0.36
-0.07
-0.22
-0.93
-1.98
-2.95
-3.50
-3.60
-3.54
-3.72
-4.45
-5.69
-7.11
-8.22
-8.70
-8.60
-8.26
-8.18
-8.67
-9.69
-10.83
-11.51
-11.25
-9.91
-7.70
-5.12
-2.72
-0.88
0.36
1.22
2.02
2.98
4.11
5.20
6.03
6.51
6.76
7.09
7.74
8.73
9.81
10.58
10.70
10.07
8.90
7.59
6.52
5.91
5.74
5.92
6.33
6.95
7.80
8.82
9.78
10.29
9.98
8.70
6.64
4.32
2.31
1.07
0.71
0.95
1.29
1.28
0.66
-0.49
-1.86
-3.05
-3.81
-4.17
-4.39
-4.78
-5.56
-6.69
-7.93
-9.04
-9.92
-10.70
-11.59
-12.61
-13.49
-13.68
-12.68
-10.31
-6.97
-3.46
-0.68
0.76
0.78
-0.18
-1.38
-2.14
-2.08
-1.20
0.18
1.64
2.90
3.92
4.83
5.86
7.06
8.22
8.97
9.00
8.30
7.27
6.53
6.57
7.43
8.58
9.25
8.84
7.34
5.35
3.76
3.24
3.88
5.14
6.13
6.17
5.09
3.36
1.74
0.88
0.97
1.66
2.25
2.13
1.10
-0.58
-2.35
-3.74
-4.63
-5.29
-6.19
-7.61
-9.40
-11.06
-12.00
-11.92
-10.99
-9.74
-8.72
-8.17
-7.87
-7.31
-6.05
-4.04
-1.74
0.15
0.97
0.50
-0.90
-2.47
-3.35
-3.01
-1.44
0.86
3.17
4.86
5.72
5.95
6.01
6.32
6.99
7.74
8.11
7.72
6.54
4.90
3.33
2.21
1.57
1.15
0.57
-0.31
-1.33
-2.09
-2.26
-1.81
-1.11
-0.73
-1.10
-2.27
-3.88
-5.41
-6.44
-6.91
-7.07
-7.33
-7.97
-8.98
-10.14
-11.09
-11.55
-11.40
-10.71
-9.64
-8.33
-6.93
-5.47
-3.98
-2.51
-1.16
-0.09
0.59
0.86
0.92
1.12
1.81
3.15
4.95
6.76
8.08
8.70
8.82
9.01
9.85
11.58
13.83
15.83
16.70
15.98
13.90
11.21
8.82
7.33
6.77
6.65
6.36
5.55
4.33
3.15
2.55
2.76
3.55
4.38
4.65
4.06
2.75
1.20
-0.06
-0.72
-0.84
-0.81
-1.10
-1.94
-3.20
-4.39
-4.89
-4.27
-2.50
-0.00
2.53
4.46
5.53
5.88
6.07
6.71
8.14
10.32
12.78
14.99
16.57
17.61
18.54
19.81
21.53
23.22
24.01
23.04
19.97
15.17
9.52
3.92
-1.16
-5.71
-9.91
-13.69
-16.44
-17.26
-15.50
-11.32
-5.80
-0.63
2.64
3.18
1.09
-2.83
-7.58
-12.47
-17.28
-22.11
-27.08
-32.00
-36.28
-39.14
-39.90
-38.42
-35.20
-31.28
-27.71
-25.23
-23.99
-23.60
-23.50
-23.29
-22.95
-22.67
-22.54
-22.32
-21.36
-18.92
-14.56
-8.59
-1.99
3.84
7.78
9.42
9.27
8.40
7.87
8.25
9.41
10.82
11.95
12.59
12.94
13.38
14.16
15.19
16.13
16.57
16.30
15.43
14.32
13.37
12.81
12.57
12.28
11.47
9.80
7.33
4.53
2.07
0.53
0.05
0.30
0.65
0.51
-0.40
-1.99
-3.98
-6.08
-8.18
-10.29
-12.34
-14.10
-15.12
-14.95
-13.35
-10.57
-7.24
-4.23
-2.30
-1.85
-2.75
-4.47
-6.20
-7.23
-7.12
-5.82
-3.69
-1.35
0.55
1.60
1.77
1.39
1.01
1.17
2.12
3.77
5.69
7.39
8.43
8.57
7.80
6.26
4.22
2.04
0.13
-1.14
-1.59
-1.38
-0.99
-1.11
-2.28
-4.65
-7.78
-10.82
-12.82
-13.21
-11.98
-9.73
-7.38
-5.74
-5.16
-5.44
-6.01
-6.30
-6.06
-5.46
-4.87
-4.53
-4.33
-3.84
-2.67
-0.82
1.25
2.82
3.41
3.13
2.65
2.86
4.23
6.51
8.82
10.18
10.08
8.80
7.15
6.02
5.79
6.16
6.41
5.84
4.23
1.92
-0.41
-2.18
-3.21
-3.78
-4.43
-5.55
-7.14
-8.78
-9.84
-9.86
-8.84
-7.25
-5.86
-5.39
-6.10
-7.65
-9.24
-10.00
-9.38
-7.48
-4.88
-2.39
-0.58
0.46
1.03
1.50
2.08
2.64
2.88
2.66
2.15
1.78
2.01
3.02
4.63
6.41
7.99
9.22
10.27
11.35
12.58
13.79
14.55
14.46
13.35
11.41
9.17
7.27
6.22
6.19
6.95
7.94
8.50
8.15
6.80
4.80
2.82
1.45
0.95
1.08
1.28
1.02
0.15
-1.07
-2.07
-2.47
-2.39
-2.39
-3.10
-4.80
-7.12
-9.20
-10.16
-9.63
-7.99
-6.15
-5.02
-4.99
-5.75
-6.45
-6.23
-4.68
-2.04
0.91
3.30
4.61
4.86
4.56
4.42
4.94
6.20
7.84
9.36
10.36
10.84
11.09
11.55
12.40
13.40
14.04
13.75
12.41
10.35
8.33
7.04
6.74
7.11
7.42
6.99
5.56
3.47
1.45
0.24
0.16
0.95
1.94
2.42
2.06
1.04
-0.09
-0.76
-0.78
-0.43
-0.31
-0.97
-2.53
-4.65
-6.69
-8.02
-8.43
-8.10
-7.54
-7.28
-7.56
-8.30
-9.14
-9.60
-9.40
-8.50
-7.10
-5.48
-3.85
-2.26
-0.66
0.89
2.19
2.86
2.61
1.50
-0.01
-1.20
-1.42
-0.44
1.40
3.45
5.03
5.85
6.06
6.07
6.28
6.82
7.52
8.05
8.18
7.87
7.31
6.74
6.28
5.82
5.10
3.83
1.90
-0.55
-3.11
-5.29
-6.72
-7.30
-7.29
-7.12
-7.19
-7.65
-8.35
-8.95
-9.19
-9.04
-8.78
-8.78
-9.22
-9.98
-10.65
-10.73
-9.98
-8.52
-6.81
-5.38
-4.59
-4.42
-4.53
-4.48
-3.99
-3.07
-2.03
-1.23
-0.91
-0.98
-1.07
-0.79
0.10
1.49
2.99
4.15
4.73
4.83
4.81
5.03
5.65
6.45
7.04
7.08
6.52
5.69
5.13
5.25
6.09
7.23
7.97
7.70
6.20
3.73
0.97
-1.35
-2.76
-3.24
-3.13
-2.91
-2.87
-3.01
-3.08
-2.79
-2.09
-1.30
-0.94
-1.51
-3.16
-5.56
-8.02
-9.82
-10.48
-10.01
-8.78
-7.32
-5.99
-4.91
-3.91
-2.81
-1.65
-0.77
-0.65
-1.63
-3.55
-5.72
-7.14
-6.89
-4.62
-0.69
3.94
8.16
11.11
12.43
12.26
11.05
9.27
7.28
5.29
3.49
2.09
1.37
1.50
2.48
4.02
5.59
6.65
6.87
6.34
5.49
4.91
5.01
5.84
7.06
8.21
8.94
9.20
9.23
9.28
9.51
9.82
9.97
9.80
9.28
8.62
8.11
7.94
8.07
8.24
8.00
6.91
4.70
1.40
-2.71
-7.18
-11.50
-15.29
-18.27
-20.26
-21.12
-20.73
-19.09
-16.33
-12.85
-9.25
-6.12
-3.88
-2.64
-2.12
-1.86
-1.43
-0.58
0.64
1.97
3.13
3.93
4.38
4.62
4.76
4.86
4.81
4.48
3.85
3.10
2.57
2.60
3.31
4.43
5.42
5.68
4.89
3.24
1.42
0.33
0.66
2.53
5.38
8.19
9.87
9.76
7.83
4.67
1.13
-2.08
-4.62
-6.57
-8.12
-9.39
-10.28
-10.55
-10.14
-9.28
-8.58
-8.75
-10.18
-12.72
-15.65
-18.00
-19.00
-18.41
-16.66
-14.48
-12.62
-11.39
-10.70
-10.11
-9.27
-8.11
-6.87
-5.98
-5.70
-5.98
-6.51
-6.90
-6.94
-6.77
-6.77
-7.32
-8.63
-10.50
-12.44
-13.91
-14.70
-15.08
-15.71
-17.28
-20.11
-24.02
-28.44
-32.72
-36.53
-40.04
-43.82
-48.45
-54.09
-60.22
-65.81
-69.62
-70.64
-68.46
-63.51
-56.76
-49.10
-40.63
-30.29
-16.46
2.32
26.64
55.71
87.46
119.11
148.04
172.44
191.40
204.03
209.97
210.05
206.92
204.48
206.10
212.74
221.91
228.14
224.08
204.28
168.00
119.95
68.12
20.03
-20.03
-51.57
-76.90
-100.68
-127.56
-160.61
-200.53
-245.64
-292.45
-335.99
-370.18
-381.87
-362.00
-311.93
-245.08
-179.13
-126.12
-89.28
-65.56
-50.02
-38.95
-31.91
-29.15
-29.73
-30.26
-25.92
-13.59
6.58
31.89
58.60
82.94
103.41
121.66
139.77
161.79
190.82
227.36
269.70
314.17
355.16
386.37
402.24
399.76
380.09
347.16
305.78
260.72
215.32
170.65
126.30
81.48
36.40
-6.65
-45.66
-80.55
-112.61
-144.00
-176.54
-210.81
-246.18
-280.86
-311.80
-329.39
-326.18
-299.28
-252.70
-195.36
-136.86
-84.36
-45.61
-18.65
-0.61
9.55
12.10
6.72
-7.02
-27.60
-54.26
-86.81
-125.15
-170.38
-223.74
-283.88
-345.59
-400.04
-437.13
-449.61
-435.52
-398.44
-346.65
-289.67
-234.45
-183.91
-137.43
-92.78
-48.17
-2.96
42.77
87.86
130.63
169.18
201.44
225.46
239.83
243.70
237.37
222.52
201.92
179.29
158.90
144.63
138.91
141.96
151.72
164.76
177.62
187.76
194.03
196.24
194.51
188.88
179.48
167.11
153.68
141.94
134.52
132.80
136.08
141.93
147.22
149.55
148.11
143.86
138.56
133.80
130.19
127.38
124.59
121.26
117.46
113.78
110.98
109.58
109.60
110.66
112.13
113.48
114.45
115.14
116.01
117.75
121.08
126.48
133.88
142.62
151.61
159.65
165.72
169.07
169.18
165.55
157.54
144.45
125.69
101.15
71.53
38.43
4.02
-29.42
-60.27
-88.08
-113.61
-138.33
-163.62
-189.90
-216.39
-241.65
-264.04
-282.77
-298.33
-312.51
-327.95
-347.72
-374.81
-411.52
-458.62
-513.67
-570.43
-619.76
-652.13
-660.85
-644.52
-607.52
-557.77
-503.99
-452.03
-403.86
-358.74
-315.27
-272.91
-232.26
-194.15
-158.22
-123.35
-87.32
-48.32
-6.21
37.48
79.67
117.03
147.21
173.45
196.26
214.55
226.57
231.21
229.04
220.88
208.67
193.48
177.13
161.89
150.82
146.55
150.35
161.58
178.11
197.01
215.66
233.08
249.59
267.06
288.15
315.13
350.22
392.18
435.18
469.87
486.59
478.49
444.49
389.68
313.22
222.98
131.16
49.17
-16.69
-65.69
-100.06
-122.08
-133.14
-135.09
-129.24
-118.53
-107.06
-98.29
-93.65
-92.21
-91.68
-89.53
-84.79
-77.05
-68.09
-61.24
-59.89
-66.04
-79.54
-98.56
-120.26
-142.55
-163.73
-181.51
-196.48
-210.29
-224.81
-241.32
-263.04
-287.79
-311.36
-327.48
-329.83
-314.72
-282.77
-239.44
-193.05
-152.02
-121.31
-101.53
-89.20
-79.12
-66.97
-50.11
-29.45
-6.37
17.35
40.33
60.96
78.01
91.13
101.01
109.23
117.64
127.83
140.47
155.81
173.78
194.67
218.97
246.61
276.17
304.47
327.12
339.40
337.76
320.92
290.68
251.83
210.79
173.49
143.46
121.05
103.77
88.14
71.56
53.45
35.16
18.78
5.93
-3.04
-8.88
-13.04
-16.93
-21.40
-26.35
-30.62
-32.17
-28.81
-19.32
-4.42
12.95
28.46
38.16
40.00
34.39
23.46
9.60
-5.76
-22.26
-39.79
-57.45
-73.02
-83.52
-86.53
-81.48
-70.16
-56.17
-43.61
-35.50
-32.81
-34.18
-36.68
-37.04
-32.90
-23.66
-10.61
3.62
15.92
23.76
25.91
22.85
16.50
9.68
5.16
4.72
8.68
15.74
23.54
29.65
32.44
31.70
28.47
24.39
20.81
18.22
16.12
13.50
9.57
4.30
-1.54
-6.71
-10.28
-12.18
-13.23
-14.61
-17.21
-21.15
-25.80
-30.22
-33.62
-35.55
-35.79
-34.19
-30.70
-25.60
-19.89
-15.23
-13.45
-15.71
-21.86
-30.29
-38.60
-44.61
-47.18
-46.50
-43.66
-39.96
-36.29
-32.91
-29.61
-26.11
-22.43
-18.82
-15.60
-12.92
-10.73
-8.89
-7.39
-6.46
-6.40
-7.30
-8.83
-10.29
-11.04
-10.83
-10.03
-9.27
-9.07
-9.39
-9.67
-9.23
-7.69
-5.26
-2.58
-0.28
1.38
2.64
3.99
5.78
7.97
10.15
11.70
12.08
10.98
8.36
4.43
-0.32
-5.23
-9.62
-13.00
-15.19
-16.30
-16.58
-16.20
-15.25
-13.68
-11.46
-8.64
-5.48
-2.43
0.04
1.56
2.06
1.88
1.69
2.14
3.59
5.88
8.46
10.69
12.18
12.92
13.18
13.15
12.80
11.88
10.23
7.98
5.53
3.35
1.68
0.38
-0.88
-2.42
-4.15
-5.65
-6.30
-5.64
-3.63
-0.75
2.18
4.39
5.41
5.27
4.37
3.31
2.56
2.38
2.76
3.55
4.58
5.73
6.88
7.85
8.50
8.67
8.38
7.84
7.34
7.19
7.48
8.08
8.65
8.79
8.26
7.07
5.54
4.14
3.28
3.08
3.37
3.74
3.78
3.22
2.05
0.47
-1.18
-2.52
-3.28
-3.39
-2.99
-2.41
-2.05
-2.12
-2.61
-3.18
-3.42
-3.02
-1.99
-0.62
0.61
1.30
1.27
0.61
-0.37
-1.35
-2.12
-2.62
-2.92
-3.13
-3.29
-3.42
-3.54
-3.71
-4.10
-4.78
-5.66
-6.43
-6.59
-5.71
-3.70
-0.97
1.77
3.75
4.51
4.12
3.10
2.18
1.97
2.72
4.19
5.90
7.31
8.10
8.35
8.33
8.36
8.56
8.83
8.99
9.02
9.09
9.50
10.49
11.92
13.31
14.07
13.79
12.57
11.01
9.91
9.80
10.64
11.75
12.15
11.14
8.64
5.24
1.82
-0.87
-2.58
-3.61
-4.48
-5.67
-7.29
-9.16
-10.93
-12.26
-12.99
-13.11
-12.69
-11.80
-10.55
-9.11
-7.75
-6.87
-6.85
-7.89
-9.90
-12.46
-14.87
-16.49
-16.94
-16.35
-15.23
-14.25
-13.83
-13.90
-13.94
-13.27
-11.55
-9.03
-6.50
-4.86
-4.47
-4.95
-5.31
-4.52
-2.19
1.24
4.72
7.28
8.51
8.80
8.90
9.35
10.19
10.97
11.07
10.21
8.59
6.80
5.52
5.17
5.73
6.77
7.58
7.47
6.12
3.70
0.90
-1.36
-2.32
-1.73
0.02
2.13
3.81
4.58
4.49
3.87
3.10
2.37
1.62
0.68
-0.48
-1.69
-2.53
-2.67
-2.06
-1.05
-0.24
-0.22
-1.17
-2.76
-4.24
-4.79
-3.98
-2.00
0.42
2.47
3.60
3.88
3.78
3.85
4.34
5.04
5.39
4.90
3.43
1.37
-0.58
-1.77
-1.88
-1.15
-0.19
0.35
0.07
-0.97
-2.32
-3.46
-4.10
-4.40
-4.81
-5.83
-7.65
-9.95
-12.11
-13.49
-13.78
-13.20
-12.29
-11.72
-11.92
-13.02
-14.85
-17.07
-19.28
-21.01
-21.71
-20.88
-18.27
-14.13
-9.23
-4.61
-1.18
0.68
1.25
1.23
1.45
2.47
4.50
7.33
10.49
13.40
15.50
16.53
16.55
15.97
15.31
14.98
15.04
15.25
15.25
14.87
14.29
13.93
14.15
15.02
16.12
16.69
15.94
13.43
9.37
4.60
0.28
-2.45
-2.89
-0.94
2.97
8.01
13.16
17.37
19.64
19.24
15.88
9.85
1.96
-6.84
-15.78
-24.50
-32.85
-40.58
-47.07
-51.42
-52.81
-50.97
-46.39
-40.28
-34.21
-29.60
-27.23
-26.96
-27.65
-27.54
-24.91
-18.75
-9.29
2.11
13.45
22.93
29.53
33.21
34.46
33.82
31.54
27.73
22.71
17.26
12.56
9.68
9.12
10.47
12.65
14.37
14.64
13.25
10.64
7.72
5.36
4.11
4.05
4.92
6.32
7.85
9.22
10.20
10.58
10.20
8.97
6.98
4.54
2.09
0.08
-1.15
-1.54
-1.31
-0.87
-0.67
-1.01
-1.90
-3.09
-4.09
-4.45
-3.99
-2.92
-1.78
-1.15
-1.34
-2.23
-3.36
-4.13
-4.13
-3.31
-1.87
-0.19
1.44
2.85
4.06
5.14
6.18
7.21
8.14
8.86
9.20
9.13
8.71
8.14
7.64
7.29
6.94
6.25
4.91
2.84
0.27
-2.31
-4.39
-5.61
-5.90
-5.41
-4.36
-2.93
-1.28
0.46
2.10
3.41
4.23
4.49
4.30
3.88
3.48
3.24
3.17
3.16
3.01
2.62
2.02
1.39
1.02
1.13
1.75
2.68
3.53
3.91
3.55
2.49
1.01
-0.41
-1.32
-1.48
-0.91
0.04
0.90
1.21
0.70
-0.62
-2.54
-4.77
-6.99
-8.97
-10.49
-11.35
-11.37
-10.45
-8.68
-6.44
-4.25
-2.62
-1.75
-1.48
-1.36
-0.94
-0.00
1.28
2.50
3.31
3.60
3.61
3.76
4.33
5.31
6.38
7.15
7.43
7.34
7.27
7.58
8.41
9.56
10.64
11.27
11.34
10.97
10.45
9.98
9.60
9.15
8.44
7.41
6.14
4.87
3.87
3.26
3.03
3.00
2.91
2.49
1.63
0.43
-0.85
-1.87
-2.40
-2.41
-2.12
-1.84
-1.87
-2.30
-3.10
-4.12
-5.22
-6.29
-7.24
-7.95
-8.28
-8.11
-7.35
-6.04
-4.36
-2.52
-0.81
0.51
1.25
1.34
0.96
0.49
0.35
0.83
1.95
3.37
4.64
5.38
5.52
5.25
4.90
4.69
4.67
4.68
4.60
4.47
4.55
5.11
6.26
7.80
9.27
10.17
10.21
9.38
7.98
6.42
5.07
4.12
3.60
3.39
3.33
3.29
3.22
3.12
2.98
2.72
2.09
0.80
-1.36
-4.31
-7.54
-10.33
-12.01
-12.38
-11.84
-11.19
-11.22
-12.23
-13.98
-15.82
-17.17
-17.73
-17.57
-16.91
-15.92
-14.62
-12.99
-11.13
-9.25
-7.64
-6.50
-5.88
-5.72
-5.82
-5.93
-5.79
-5.17
-4.03
-2.60
-1.32
-0.67
-0.83
-1.54
-2.18
-2.10
-0.99
0.90
2.97
4.61
5.52
5.84
5.91
6.06
6.32
6.50
6.32
5.67
4.70
3.73
3.11
3.00
3.27
3.61
3.68
3.31
2.58
1.80
1.32
1.30
1.63
2.03
2.25
2.18
1.92
1.66
1.49
1.35
1.03
0.32
-0.87
-2.41
-4.05
-5.52
-6.68
-7.59
-8.45
-9.41
-10.47
-11.37
-11.73
-11.24
-9.90
-8.02
-6.12
-4.66
-3.79
-3.34
-2.92
-2.20
-1.09
0.22
1.45
2.35
2.89
3.22
3.56
4.10
4.87
5.78
6.65
7.33
7.70
7.71
7.36
6.61
5.44
3.84
1.93
-0.05
-1.72
-2.69
-2.69
-1.63
0.28
2.63
4.82
6.34
6.85
6.39
5.28
4.04
3.12
2.71
2.68
2.74
2.55
2.01
1.21
0.42
-0.14
-0.41
-0.49
-0.52
-0.62
-0.76
-0.88
-0.96
-1.07
-1.41
-2.18
-3.43
-4.96
-6.36
-7.19
-7.17
-6.34
-5.07
-3.88
-3.14
-2.92
-2.95
-2.80
-2.10
-0.76
1.01
2.78
4.14
4.86
4.94
4.58
4.03
3.52
3.15
2.96
2.96
3.15
3.62
4.36
5.35
6.38
7.18
7.47
7.10
6.16
4.93
3.82
3.09
2.78
2.60
2.20
1.33
0.06
-1.26
-2.21
-2.49
-2.17
-1.56
-1.12
-1.10
-1.50
-2.12
-2.79
-3.52
-4.58
-6.25
-8.58
-11.23
-13.54
-14.84
-14.81
-13.67
-12.11
-10.85
-10.30
-10.34
-10.47
-10.16
-9.21
-7.81
-6.39
-5.31
-4.64
-4.18
-3.62
-2.85
-1.93
-1.09
-0.47
-0.07
0.30
0.85
1.68
2.72
3.76
4.57
4.95
4.87
4.40
3.69
2.95
2.32
1.87
1.62
1.51
1.44
1.32
1.07
0.63
0.00
-0.72
-1.38
-1.77
-1.81
-1.61
-1.44
-1.67
-2.55
-4.07
-5.95
-7.83
-9.35
-10.33
-10.77
-10.77
-10.43
-9.84
-9.05
-8.19
-7.43
-6.89
-6.59
-6.36
-5.89
-4.92
-3.38
-1.48
0.38
1.83
2.69
3.08
3.29
3.60
4.11
4.67
5.02
4.96
4.51
3.93
3.58
3.67
4.22
5.02
5.85
6.54
7.09
7.59
8.09
8.54
8.83
8.80
8.37
7.56
6.53
5.47
4.56
3.87
3.34
2.79
2.04
0.99
-0.31
-1.71
-3.04
-4.24
-5.38
-6.61
-8.02
-9.55
-11.02
-12.22
-13.01
-13.37
-13.34
-12.95
-12.21
-11.09
-9.55
-7.68
-5.70
-3.96
-2.87
-2.69
-3.38
-4.56
-5.62
-6.00
-5.41
-4.00
-2.17
-0.40
1.06
2.20
3.26
4.47
5.98
7.71
9.45
10.93
11.92
12.37
12.38
12.16
11.93
11.77
11.58
11.21
10.55
9.68
8.84
8.28
8.09
8.15
8.18
7.98
7.48
6.81
6.12
5.48
4.77
3.82
2.53
0.96
-0.66
-2.05
-2.98
-3.36
-3.31
-3.07
-2.99
-3.40
-4.48
-6.21
-8.34
-10.48
-12.23
-13.32
-13.68
-13.40
-12.64
-11.53
-10.14
-8.50
-6.68
-4.77
-2.97
-1.43
-0.27
0.54
1.12
1.65
2.26
2.99
3.70
4.19
4.31
3.96
3.20
2.16
0.98
-0.15
-1.03
-1.36
-0.91
0.44
2.54
5.02
7.43
9.40
10.79
11.69
12.25
12.60
12.79
12.77
12.52
11.99
11.17
10.03
8.59
6.89
5.04
3.25
1.64
0.30
-0.88
-2.08
-3.46
-5.08
-6.88
-8.67
-10.31
-11.67
-12.71
-13.43
-13.80
-13.76
-13.19
-12.02
-10.30
-8.19
-6.02
-4.07
-2.55
-1.42
-0.49
0.51
1.74
3.20
4.68
5.94
6.74
7.05
7.00
6.89
7.00
7.54
8.50
9.72
10.89
11.76
12.18
12.11
11.58
10.54
8.90
6.62
3.86
1.04
-1.31
-2.81
-3.44
-3.65
-4.06
-5.17
-7.04
-9.28
-11.27
-12.50
-12.90
-12.77
-12.65
-12.95
-13.78
-14.89
-15.85
-16.26
-15.98
-15.15
-14.04
-12.85
-11.57
-10.01
-8.01
-5.63
-3.24
-1.33
-0.25
-0.01
-0.18
-0.17
0.52
2.01
4.03
6.01
7.37
7.80
7.37
6.43
5.55
5.15
5.43
6.22
7.14
7.75
7.81
7.40
6.85
6.60
6.96
7.89
9.06
9.97
10.22
9.70
8.67
7.59
6.83
6.48
6.31
5.97
5.25
4.30
3.45
3.04
3.09
3.27
3.09
2.22
0.72
-1.01
-2.47
-3.36
-3.73
-3.91
-4.28
-5.05
-6.22
-7.63
-9.04
-10.24
-11.07
-11.45
-11.31
-10.67
-9.56
-8.06
-6.25
-4.20
-2.04
0.02
1.75
2.97
3.66
4.00
4.23
4.54
4.98
5.41
5.67
5.68
5.57
5.57
5.90
6.62
7.59
8.57
9.38
10.00
10.51
11.02
11.51
11.80
11.62
10.75
9.16
7.10
5.01
3.34
2.40
2.21
2.52
2.97
3.18
2.91
2.15
1.03
-0.21
-1.41
-2.54
-3.77
-5.28
-7.21
-9.42
-11.57
-13.29
-14.32
-14.67
-14.52
-14.09
-13.46
-12.58
-11.36
-9.81
-8.04
-6.26
-4.65
-3.30
-2.26
-1.55
-1.21
-1.22
-1.49
-1.78
-1.82
-1.42
-0.51
0.82
2.41
4.07
5.62
6.90
7.82
8.32
8.46
8.44
8.46
8.68
9.06
9.44
9.59
9.39
8.90
8.27
7.65
7.05
6.30
5.13
3.33
0.94
-1.73
-4.19
-6.00
-6.94
-7.15
-7.06
-7.19
-7.92
-9.28
-10.97
-12.51
-13.46
-13.64
-13.18
-12.40
-11.57
-10.75
-9.76
-8.34
-6.36
-3.91
-1.29
1.14
3.22
4.98
6.54
7.99
9.27
10.34
11.27
12.42
14.35
17.65
22.64
29.15
36.52
43.73
49.74
53.81
55.72
55.90
55.23
54.87
55.85
58.84
63.97
70.80
78.45
85.90
92.21
96.91
100.20
102.89
106.12
110.76
116.90
123.77
129.92
133.75
133.96
130.02
122.48
113.19
105.05
101.29
104.15
113.51
126.08
136.07
137.01
124.23
96.66
57.10
10.64
-37.47
-83.72
-126.83
-167.09
-205.41
-242.76
-280.46
-320.43
-364.68
-413.80
-465.22
-512.51
-546.67
-559.20
-545.57
-507.13
-450.72
-385.94
-321.75
-264.07
-215.18
-174.55
-140.33
-110.10
-80.85
-49.11
-11.77
32.05
79.25
122.52
152.35
160.21
142.27
101.22
45.84
-11.81
-60.01
-90.48
-99.75
-88.67
-60.96
-21.36
25.57
75.97
126.76
175.58
221.12
263.13
302.23
339.39
375.10
408.88
439.16
464.13
482.50
493.80
497.80
493.73
480.13
456.04
422.62
384.06
346.74
316.61
296.37
284.13
274.67
262.43
244.60
222.33
199.57
180.48
167.05
158.23
150.96
141.95
129.29
112.89
93.94
73.83
53.40
32.59
10.75
-12.81
-38.34
-65.38
-92.95
-120.00
-145.86
-170.30
-193.26
-214.49
-233.49
-250.00
-264.66
-279.20
-295.78
-315.71
-338.25
-360.37
-377.84
-386.79
-385.63
-375.81
-361.56
-348.73
-343.40
-350.68
-373.52
-411.70
-461.19
-514.60
-562.67
-596.79
-611.33
-604.85
-579.84
-541.08
-493.93
-442.93
-391.41
-341.65
-295.17
-252.92
-215.16
-181.42
-150.67
-121.72
-93.66
-66.06
-38.93
-12.49
12.88
36.93
59.55
80.79
100.90
120.35
139.71
159.57
180.21
201.48
222.76
243.17
261.86
278.33
292.78
306.02
319.45
334.94
354.74
381.12
415.38
456.57
500.56
540.26
567.32
574.92
560.09
524.94
475.57
419.51
363.17
310.24
261.71
217.09
175.80
137.54
102.19
69.06
36.66
3.30
-32.01
-69.17
-107.26
-145.46
-184.42
-225.82
-271.14
-319.64
-366.70
-404.43
-424.44
-421.17
-394.01
-347.37
-288.00
-223.03
-158.78
-100.79
-54.80
-26.76
-21.16
-35.12
-60.66
-84.49
-93.92
-83.43
-56.09
-20.07
16.28
47.62
71.55
87.54
96.07
97.55
92.12
81.15
66.34
49.13
30.45
9.45
-15.93
-48.13
-89.36
-140.23
-198.46
-258.80
-314.35
-353.18
-367.59
-355.78
-322.37
-276.79
-229.60
-188.48
-156.19
-130.91
-108.52
-86.21
-63.17
-40.32
-19.03
0.10
17.77
35.34
53.89
73.78
93.92
113.13
131.04
148.49
167.22
189.06
214.87
243.76
273.04
298.49
316.23
324.26
323.43
317.27
310.59
307.41
309.26
314.70
319.98
321.08
315.31
302.10
282.60
258.77
232.47
205.12
177.94
152.03
128.56
108.45
91.90
78.37
66.80
56.19
46.05
36.56
28.51
23.04
21.29
24.09
31.67
43.40
57.91
73.33
87.72
99.42
107.11
109.68
105.96
94.78
75.48
48.46
15.69
-19.39
-52.83
-81.33
-103.39
-119.50
-131.56
-141.68
-150.90
-158.81
-163.84
-164.40
-160.01
-151.82
-142.32
-134.23
-129.35
-127.77
-128.08
-128.19
-126.39
-122.14
-115.99
-108.97
-101.69
-93.96
-85.06
-74.57
-63.13
-52.52
-44.90
-41.67
-42.58
-45.65
-48.07
-47.55
-43.40
-36.66
-29.45
-23.88
-21.02
-20.65
-21.64
-22.70
-23.04
-22.53
-21.60
-20.78
-20.39
-20.36
-20.38
-20.17
-19.66
-19.04
-18.66
-18.79
-19.35
-20.06
-20.47
-20.33
-19.75
-19.15
-19.01
-19.58
-20.77
-22.11
-23.12
-23.47
-23.20
-22.63
-22.06
-21.60
-21.04
-20.04
-18.39
-16.26
-14.11
-12.49
-11.66
-11.43
-11.19
-10.31
-8.50
-6.00
-3.64
-2.46
-3.38
-6.76
-11.93
-17.10
-19.58
-16.63
-6.49
10.49
31.71
53.00
70.07
80.09
82.53
78.87
71.48
62.40
52.70
42.67
32.50
22.77
14.50
8.48
4.71
2.29
-0.14
-3.66
-8.51
-13.98
-18.90
-22.27
-23.74
-23.70
-22.90
-22.04
-21.41
-20.89
-20.17
-19.11
-17.83
-16.63
-15.76
-15.21
-14.70
-13.85
-12.42
-10.47
-8.33
-6.43
-4.97
-3.89
-2.93
-1.80
-0.46
0.92
2.06
2.73
2.93
2.93
3.10
3.76
5.01
6.58
8.01
8.83
8.80
8.09
7.16
6.61
6.81
7.71
8.88
9.72
9.85
9.28
8.49
8.07
8.47
9.64
11.15
12.35
12.76
12.33
11.36
10.35
9.68
9.40
9.25
8.83
7.86
6.31
4.48
2.74
1.43
0.58
-0.03
-0.78
-1.97
-3.59
-5.40
-6.99
-8.07
-8.61
-8.90
-9.27
-9.91
-10.65
-11.06
-10.70
-9.39
-7.40
-5.27
-3.56
-2.53
-2.09
-1.95
-1.79
-1.45
-1.00
-0.57
-0.23
0.08
0.64
1.74
3.58
6.05
8.78
11.26
13.04
14.03
14.51
14.92
15.65
16.68
17.61
17.80
16.85
14.85
12.35
10.16
8.85
8.46
8.55
8.45
7.72
6.40
4.99
4.08
4.08
4.90
6.01
6.71
6.52
5.33
3.41
1.23
-0.84
-2.64
-4.32
-6.11
-8.13
-10.25
-12.08
-13.15
-13.19
-12.37
-11.25
-10.49
-10.50
-11.14
-11.77
-11.64
-10.32
-7.98
-5.32
-3.13
-1.87
-1.41
-1.20
-0.63
0.61
2.33
4.00
5.11
5.39
4.95
4.20
3.62
3.46
3.70
4.07
4.26
4.09
3.64
3.16
2.93
3.05
3.32
3.35
2.78
1.49
-0.30
-2.06
-3.30
-3.85
-3.97
-4.26
-5.29
-7.26
-9.78
-12.11
-13.51
-13.72
-13.06
-12.27
-12.11
-12.89
-14.28
-15.48
-15.59
-14.16
-11.38
-8.08
-5.21
-3.42
-2.69
-2.44
-1.95
-0.83
0.74
2.12
2.69
2.24
1.16
0.16
-0.11
0.52
1.70
2.82
3.39
3.36
3.07
3.02
3.49
4.36
5.17
5.38
4.68
3.22
1.58
0.46
0.35
1.26
2.64
3.74
3.94
3.08
1.57
0.14
-0.57
-0.32
0.64
1.77
2.53
2.67
2.33
1.83
1.40
1.00
0.37
-0.72
-2.31
-4.04
-5.43
-6.05
-5.88
-5.30
-4.89
-5.10
-6.01
-7.26
-8.18
-8.19
-7.04
-4.97
-2.59
-0.67
0.27
0.21
-0.43
-0.98
-0.93
-0.20
0.83
1.61
1.81
1.56
1.37
1.82
3.12
4.92
6.49
7.15
6.70
5.61
4.79
5.06
6.72
9.31
11.94
13.74
14.31
13.89
13.19
12.89
13.26
14.03
14.57
14.28
12.95
10.91
8.82
7.31
6.61
6.47
6.26
5.42
3.71
1.43
-0.83
-2.47
-3.25
-3.42
-3.53
-4.11
-5.39
-7.17
-8.97
-10.34
-11.11
-11.53
-12.05
-13.08
-14.73
-16.70
-18.45
-19.41
-19.36
-18.46
-17.18
-15.98
-15.09
-14.34
-13.33
-11.75
-9.56
-7.12
-4.96
-3.47
-2.67
-2.18
-1.45
-0.09
1.85
3.91
5.43
5.96
5.56
4.76
4.34
4.84
6.27
8.09
9.54
10.11
9.77
8.96
8.33
8.27
8.75
9.34
9.55
9.09
8.08
6.91
5.99
5.47
5.21
4.85
4.10
2.89
1.45
0.15
-0.68
-0.94
-0.81
-0.58
-0.52
-0.73
-1.14
-1.67
-2.25
-2.93
-3.77
-4.87
-6.24
-7.85
-9.58
-11.28
-12.77
-13.90
-14.66
-15.14
-15.52
-15.98
-16.51
-16.95
-16.96
-16.27
-14.82
-12.77
-10.44
-8.07
-5.82
-3.64
-1.46
0.78
3.02
5.09
6.77
7.92
8.53
8.77
8.96
9.37
10.11
11.00
11.79
12.21
12.30
12.30
12.60
13.41
14.60
15.77
16.45
16.38
15.64
14.59
13.61
12.89
12.31
11.62
10.56
9.15
7.69
6.58
6.12
6.24
6.51
6.33
5.24
3.23
0.78
-1.36
-2.55
-2.67
-2.11
-1.61
-1.81
-2.93
-4.74
-6.65
-8.15
-9.01
-9.41
-9.79
-10.53
-11.77
-13.30
-14.69
-15.48
-15.42
-14.56
-13.19
-11.69
-10.33
-9.19
-8.12
-6.90
-5.45
-3.88
-2.48
-1.55
-1.16
-1.08
-0.86
-0.08
1.41
3.36
5.24
6.57
7.13
7.11
6.96
7.13
7.77
8.72
9.55
9.87
9.53
8.72
7.82
7.17
6.88
6.75
6.42
5.59
4.25
2.74
1.55
1.13
1.54
2.41
3.09
2.97
1.76
-0.36
-2.86
-5.15
-6.85
-7.94
-8.68
-9.48
-10.55
-11.91
-13.36
-14.68
-15.86
-17.08
-18.56
-20.43
-22.47
-24.18
-24.93
-24.28
-22.17
-19.02
-15.55
-12.43
-10.01
-8.21
-6.61
-4.84
-2.81
-0.84
0.57
1.04
0.60
-0.21
-0.70
-0.29
1.07
2.98
4.85
6.21
7.04
7.63
8.39
9.52
10.83
11.88
12.23
11.74
10.67
9.54
8.86
8.84
9.28
9.74
9.77
9.19
8.21
7.28
6.80
6.90
7.30
7.47
6.94
5.51
3.45
1.24
-0.58
-1.75
-2.37
-2.78
-3.37
-4.32
-5.53
-6.71
-7.56
-8.04
-8.36
-8.92
-10.11
-11.96
-14.10
-15.81
-16.35
-15.35
-13.04
-10.13
-7.47
-5.60
-4.55
-3.85
-2.93
-1.47
0.38
2.20
3.60
4.48
5.13
5.97
7.28
9.02
10.80
12.26
13.20
13.76
14.27
15.05
16.15
17.31
18.08
18.05
17.06
15.31
13.25
11.42
10.19
9.63
9.48
9.41
9.07
8.35
7.36
6.32
5.47
4.90
4.49
4.02
3.28
2.26
1.13
0.14
-0.52
-0.86
-1.10
-1.52
-2.30
-3.38
-4.57
-5.65
-6.54
-7.36
-8.35
-9.71
-11.48
-13.42
-15.13
-16.19
-16.26
-15.30
-13.56
-11.48
-9.48
-7.79
-6.34
-4.84
-3.03
-0.86
1.42
3.38
4.68
5.31
5.57
5.96
6.85
8.32
10.06
11.62
12.61
12.94
12.87
12.81
13.13
13.91
14.89
15.64
15.78
15.21
14.15
12.98
12.06
11.48
11.07
10.52
9.59
8.29
6.86
5.63
4.82
4.34
3.88
3.03
1.54
-0.56
-2.95
-5.17
-6.86
-7.96
-8.72
-9.60
-11.01
-13.10
-15.64
-18.16
-20.08
-21.04
-20.99
-20.17
-18.94
-17.59
-16.18
-14.55
-12.52
-10.04
-7.34
-4.79
-2.76
-1.38
-0.51
0.19
1.06
2.21
3.51
4.67
5.46
5.86
6.10
6.54
7.40
8.59
9.76
10.44
10.29
9.33
7.90
6.47
5.37
4.60
3.85
2.67
0.81
-1.65
-4.27
-6.53
-8.09
-9.04
-9.80
-10.94
-12.80
-15.33
-18.10
-20.54
-22.27
-23.27
-23.84
-24.44
-25.29
-26.25
-26.77
-26.28
-24.47
-21.60
-18.37
-15.56
-13.62
-12.51
-11.78
-10.96
-9.85
-8.54
-7.30
-6.16
-4.83
-2.77
0.49
5.05
10.53
16.23
21.40
25.58
28.60
30.72
32.30
33.73
35.19
36.51
37.32
37.18
35.91
33.70
31.04
28.49
26.33
24.48
22.54
20.15
17.22
14.04
11.05
8.59
6.60
4.70
2.46
-0.29
-3.30
-5.95
-7.69
-8.34
-8.30
-8.38
-9.35
-11.57
-14.79
-18.25
-21.16
-23.04
-24.01
-24.66
-25.80
-28.04
-31.57
-36.15
-41.15
-45.53
-48.14
-48.00
-44.72
-38.78
-31.45
-24.31
-18.62
-14.76
-12.23
-10.07
-7.49
-4.23
-0.56
3.17
6.91
11.04
16.17
22.62
30.13
37.83
44.52
49.27
51.81
52.75
53.32
54.87
58.20
63.05
68.20
71.82
72.24
68.57
61.10
51.15
40.73
31.96
26.51
24.96
26.32
27.90
25.80
16.18
-2.99
-30.15
-59.86
-83.85
-93.50
-82.67
-49.78
1.58
63.77
127.38
183.82
227.27
255.66
270.19
274.03
270.52
261.72
247.88
227.94
200.68
166.06
125.75
82.84
40.53
1.18
-34.33
-66.31
-95.55
-122.91
-149.55
-177.19
-208.19
-244.59
-286.10
-328.66
-364.55
-384.80
-382.80
-357.23
-312.65
-257.48
-200.41
-147.44
-100.98
-60.92
-26.55
2.17
24.65
40.64
51.02
57.76
62.92
67.62
71.57
73.41
71.49
64.93
54.13
40.73
27.22
16.02
8.76
5.74
6.07
8.19
10.58
12.38
13.49
14.26
14.89
15.18
14.43
11.88
7.23
0.99
-5.63
-11.20
-14.72
-16.02
-15.72
-14.75
-13.85
-13.16
-12.31
-10.64
-7.49
-2.54
4.19
12.27
21.02
29.57
37.14
43.24
47.86
51.35
54.19
56.62
58.52
59.56
59.47
58.37
56.67
54.93
53.46
52.27
51.02
49.20
46.25
41.60
34.59
24.53
11.00
-5.72
-24.33
-42.49
-57.46
-67.02
-70.25
-67.87
-61.79
-54.24
-46.93
-40.66
-35.41
-30.90
-27.07
-24.19
-22.64
-22.53
-23.49
-24.83
-26.05
-27.11
-28.60
-31.23
-35.26
-40.10
-44.36
-46.40
-45.05
-40.02
-32.01
-22.33
-12.40
-3.38
3.95
9.11
12.00
12.88
12.48
11.77
11.70
12.75
14.76
17.11
19.07
20.17
20.28
19.59
18.37
16.84
15.02
12.88
10.41
7.79
5.34
3.37
2.14
1.62
1.57
1.71
1.99
2.67
4.31
7.31
11.59
16.33
20.25
22.12
21.50
18.90
15.53
12.54
10.39
8.71
6.66
3.68
-0.05
-3.66
-6.07
-6.69
-5.72
-3.95
-2.23
-0.97
0.02
1.29
3.26
5.95
8.98
11.88
14.32
16.29
18.00
19.72
21.52
23.29
24.74
25.56
25.60
25.04
24.23
23.65
23.58
23.93
24.32
24.24
23.37
21.78
19.91
18.23
16.99
15.98
14.62
12.26
8.50
3.44
-2.43
-8.36
-13.77
-18.32
-21.94
-24.70
-26.62
-27.69
-27.83
-27.12
-25.84
-24.46
-23.57
-23.56
-24.52
-26.11
-27.84
-29.29
-30.42
-31.58
-33.25
-35.67
-38.48
-40.79
-41.43
-39.57
-35.13
-28.93
-22.19
-16.04
-10.88
-6.41
-1.89
3.31
9.26
15.45
21.08
25.56
28.77
31.12
33.24
35.54
38.05
40.39
42.12
42.98
43.07
42.79
42.53
42.53
42.72
42.90
42.99
43.20
43.96
45.76
48.73
52.43
55.81
57.56
56.79
53.72
49.96
48.06
50.38
57.98
69.80
82.96
93.87
99.71
99.45
93.88
84.82
74.04
62.60
50.87
39.18
28.28
19.24
12.79
8.66
5.34
0.63
-7.36
-19.36
-34.54
-50.97
-66.50
-79.52
-89.39
-96.30
-100.77
-103.16
-103.47
-101.31
-96.33
-88.50
-78.26
-66.45
-53.98
-41.42
-28.70
-15.20
-0.17
16.78
35.22
54.01
71.77
87.53
101.23
113.74
126.34
140.17
155.65
172.18
188.42
202.62
213.12
218.84
219.60
216.34
210.88
205.48
202.06
201.55
203.38
205.64
205.59
200.53
188.61
169.36
143.72
113.68
81.63
49.59
18.67
-11.07
-40.30
-69.83
-99.89
-129.89
-158.78
-185.60
-210.26
-233.75
-257.72
-284.04
-314.28
-349.65
-391.00
-438.31
-489.74
-540.91
-584.94
-613.83
-621.12
-604.27
-565.61
-511.45
-449.59
-386.36
-325.08
-266.19
-208.95
-153.47
-101.71
-57.14
-23.16
-1.36
9.46
13.19
14.90
18.77
26.18
35.42
42.99
46.39
46.57
48.19
57.01
75.94
102.46
129.47
149.39
159.26
162.92
168.90
184.77
211.66
243.07
268.22
278.19
270.94
251.78
229.80
212.72
203.49
200.38
199.64
198.53
196.50
194.51
193.55
193.55
193.09
190.41
184.45
175.53
165.37
156.22
149.72
145.63
141.34
132.52
114.81
85.63
45.54
-1.93
-51.80
-99.76
-143.89
-185.19
-226.78
-272.21
-323.39
-379.19
-434.91
-482.99
-515.06
-524.47
-508.62
-470.22
-416.34
-355.96
-296.96
-243.94
-197.89
-157.38
-120.55
-86.40
-54.91
-26.28
-0.04
25.04
50.20
75.57
99.52
118.87
130.40
132.44
125.95
114.15
100.96
89.31
79.90
71.28
60.98
47.09
29.40
9.56
-9.83
-26.40
-38.87
-47.31
-52.86
-57.13
-61.82
-68.35
-77.85
-90.84
-107.04
-125.06
-142.63
-156.97
-165.58
-166.78
-160.08
-146.00
-125.70
-100.64
-72.35
-42.38
-12.20
17.07
44.82
71.19
96.88
122.79
149.22
175.35
199.22
218.19
229.99
233.46
229.13
219.00
205.99
193.02
182.10
173.97
168.18
163.53
158.81
153.18
146.32
138.10
128.27
116.43
102.26
85.98
68.63
51.86
37.40
26.39
19.02
14.73
12.75
12.64
14.57
19.11
26.73
37.39
50.30
64.09
77.22
88.51
97.51
104.48
110.02
114.51
117.66
118.57
116.22
110.16
100.93
89.89
78.66
68.37
59.32
51.13
43.23
35.38
27.82
21.10
15.73
11.90
9.45
8.00
7.10
6.20
4.61
1.56
-3.56
-10.84
-19.61
-28.49
-35.78
-40.16
-41.17
-39.34
-35.96
-32.52
-30.19
-29.51
-30.34
-32.06
-33.91
-35.26
-35.83
-35.74
-35.49
-35.79
-37.27
-40.17
-44.11
-48.14
-50.98
-51.51
-49.27
-44.68
-38.85
-33.04
-28.06
-23.93
-19.92
-15.08
-8.89
-1.66
5.40
10.54
12.04
8.71
0.33
-12.22
-26.97
-41.20
-52.09
-57.50
-56.69
-50.45
-40.78
-30.15
-20.61
-13.31
-8.45
-5.56
-3.99
-3.20
-2.88
-2.85
-2.94
-2.87
-2.33
-1.03
1.17
4.19
7.73
11.36
14.76
17.81
20.62
23.45
26.45
29.53
32.31
34.20
34.68
33.43
30.52
26.39
21.73
17.25
13.50
10.71
8.81
7.62
6.99
6.84
7.14
7.75
8.39
8.67
8.35
7.43
6.22
5.06
4.11
3.08
1.34
-1.84
-6.89
-13.64
-21.27
-28.64
-34.60
-38.44
-39.92
-39.20
-36.56
-32.20
-26.23
-18.84
-10.36
-1.40
7.37
15.46
22.63
28.93
34.50
39.36
43.38
46.38
48.23
48.96
48.76
47.81
46.21
43.95
40.98
37.27
32.86
27.88
22.50
16.92
11.40
6.20
1.59
-2.23
-5.17
-7.29
-8.78
-9.91
-10.95
-12.10
-13.56
-15.48
-17.91
-20.82
-24.00
-27.17
-30.07
-32.49
-34.40
-35.92
-37.22
-38.30
-38.92
-38.56
-36.63
-32.75
-27.02
-20.07
-12.93
-6.72
-2.17
0.59
2.04
2.90
3.80
4.94
6.05
6.72
6.69
6.09
5.36
5.01
5.25
5.87
6.33
6.06
4.84
2.91
0.91
-0.48
-0.87
-0.39
0.37
0.59
-0.40
-2.81
-6.36
-10.40
-14.33
-17.79
-20.83
-23.69
-26.48
-28.93
-30.46
-30.41
-28.44
-24.87
-20.50
-16.35
-13.18
-11.21
-10.13
-9.32
-8.32
-7.01
-5.68
-4.77
-4.55
-4.92
-5.44
-5.56
-4.94
-3.72
-2.39
-1.57
-1.66
-2.54
-3.67
-4.41
-4.32
-3.46
-2.31
-1.47
-1.30
-1.72
-2.29
-2.46
-1.96
-0.98
-0.12
-0.02
-0.98
-2.73
-4.63
-5.91
-6.22
-5.76
-5.17
-5.18
-6.22
-8.16
-10.46
-12.47
-13.77
-14.36
-14.51
-14.50
-14.39
-13.93
-12.75
-10.67
-7.84
-4.81
-2.20
-0.48
0.35
0.67
1.07
1.93
3.29
4.77
5.88
6.24
5.84
5.03
4.34
4.19
4.70
5.67
6.68
7.39
7.69
7.74
7.87
8.29
8.96
9.53
9.58
8.85
7.39
5.55
3.83
2.55
1.72
1.06
0.21
-1.09
-2.77
-4.52
-5.93
-6.74
-6.99
-7.00
-7.21
-7.96
-9.26
-10.79
-12.04
-12.56
-12.19
-11.10
-9.71
-8.36
-7.19
-6.05
-4.63
-2.71
-0.32
2.20
4.39
5.92
6.76
7.16
7.54
8.20
9.13
10.08
10.66
10.68
10.23
9.75
9.74
10.53
12.04
13.81
15.23
15.85
15.60
14.83
14.02
13.56
13.45
13.42
13.11
12.31
11.12
9.89
8.99
8.55
8.40
8.14
7.36
5.92
4.05
2.19
0.75
-0.08
-0.50
-0.94
-1.78
-3.13
-4.75
-6.20
-7.06
-7.26
-7.11
-7.13
-7.79
-9.22
-11.08
-12.78
-13.71
-13.54
-12.39
-10.66
-8.79
-7.08
-5.54
-3.96
-2.20
-0.27
1.57
2.99
3.73
3.82
3.58
3.40
3.60
4.22
5.03
5.70
5.97
5.84
5.55
5.47
5.87
6.70
7.61
8.14
8.00
7.27
6.39
5.91
6.16
6.96
7.70
7.66
6.45
4.24
1.68
-0.40
-1.52
-1.73
-1.63
-1.90
-2.99
-4.79
-6.75
-8.20
-8.76
-8.55
-8.14
-8.17
-9.06
-10.74
-12.66
-14.16
-14.77
-14.48
-13.67
-12.90
-12.55
-12.59
-12.68
-12.34
-11.27
-9.47
-7.24
-4.94
-2.79
-0.81
1.11
3.09
5.07
6.84
8.08
8.59
8.35
7.62
6.76
6.12
5.85
5.84
5.83
5.50
4.73
3.62
2.48
1.74
1.68
2.36
3.61
5.07
6.46
7.65
8.68
9.61
10.41
10.91
10.82
9.92
8.23
6.08
3.96
2.37
1.48
1.05
0.59
-0.41
-2.13
-4.40
-6.75
-8.72
-10.08
-10.93
-11.48
-11.86
-12.00
-11.63
-10.50
-8.57
-6.15
-3.75
-1.88
-0.82
-0.49
-0.54
-0.50
-0.05
0.84
1.90
2.73
3.06
2.87
2.47
2.34
2.81
3.92
5.35
6.63
7.39
7.57
7.44
7.41
7.76
8.46
9.11
9.26
8.61
7.26
5.67
4.44
3.97
4.21
4.74
4.99
4.63
3.76
2.83
2.33
2.43
2.88
3.15
2.79
1.70
0.18
-1.22
-2.06
-2.28
-2.18
-2.26
-2.91
-4.21
-5.91
-7.56
-8.78
-9.37
-9.42
-9.18
-8.88
-8.62
-8.22
-7.40
-5.87
-3.64
-1.07
1.23
2.69
3.07
2.62
1.92
1.65
2.11
3.15
4.26
4.93
4.98
4.65
4.46
4.82
5.81
7.15
8.32
8.90
8.80
8.28
7.73
7.49
7.60
7.79
7.70
7.05
5.86
4.46
3.29
2.70
2.75
3.14
3.34
2.94
1.82
0.25
-1.26
-2.26
-2.62
-2.63
-2.83
-3.68
-5.30
-7.37
-9.30
-10.59
-11.06
-10.92
-10.56
-10.27
-10.04
-9.54
-8.36
-6.36
-3.81
-1.27
0.67
1.75
2.20
2.52
3.28
4.78
6.86
9.03
10.73
11.69
12.11
12.53
13.43
15.10
17.40
19.93
22.19
23.85
24.90
25.61
26.41
27.49
28.91
30.57
32.35
34.10
35.71
37.17
38.51
39.85
40.88
41.57
42.29
43.56
45.63
48.11
50.11
50.53
48.55
43.11
34.40
23.92
13.62
4.68
-3.13
-11.19
-21.13
-33.85
-50.32
-69.66
-89.36
-106.79
-120.89
-132.74
-144.87
-160.18
-181.10
-210.69
-249.31
-293.37
-335.68
-367.56
-381.60
-373.96
-345.74
-291.41
-216.39
-134.67
-62.07
-7.76
28.01
49.83
62.37
68.48
70.19
67.86
63.25
59.76
60.93
68.64
82.55
100.96
122.51
144.75
164.99
181.62
194.08
202.40
206.61
206.63
202.64
195.24
185.22
172.71
158.21
143.05
129.18
118.40
111.67
108.85
108.72
109.31
108.28
103.90
95.65
84.18
70.89
57.36
44.93
34.47
26.32
20.40
16.48
14.32
13.77
14.49
15.81
16.65
15.80
12.10
5.13
-4.51
-15.14
-24.47
-30.63
-33.06
-32.68
-31.18
-29.88
-28.83
-26.87
-22.72
-16.17
-8.72
-2.99
-1.32
-4.36
-10.54
-16.75
-19.67
-17.20
-9.00
3.51
18.01
32.06
43.80
52.12
56.61
57.31
54.55
48.96
41.63
34.02
27.78
24.18
23.48
24.48
24.71
21.25
12.01
-3.33
-22.87
-43.10
-60.10
-70.94
-74.44
-71.17
-62.75
-50.85
-36.66
-20.81
-3.91
12.95
28.11
39.79
46.47
47.07
40.79
26.81
4.57
-25.45
-61.00
-97.77
-130.26
-153.56
-164.98
-164.79
-155.76
-142.02
-127.99
-118.03
-116.44
-127.02
-151.75
-189.08
-232.90
-273.59
-301.09
-308.56
-294.87
-264.35
-224.30
-181.62
-140.43
-101.97
-65.96
-32.30
-2.04
23.01
41.35
52.62
57.77
58.63
57.43
56.43
57.83
63.28
73.30
86.79
101.07
112.76
119.19
119.31
113.90
104.76
93.47
80.81
67.10
53.01
40.33
32.10
31.64
41.46
62.48
93.95
134.30
181.43
232.45
283.04
327.31
358.93
373.23
369.33
350.19
321.88
290.74
260.62
231.87
202.62
171.35
139.07
109.65
86.22
69.68
56.92
42.06
19.49
-12.89
-52.35
-92.88
-128.36
-158.11
-185.09
-213.64
-246.35
-282.14
-317.27
-348.25
-374.03
-395.02
-413.81
-429.25
-436.33
-429.31
-406.32
-372.36
-338.21
-315.79
-297.59
-274.84
-236.83
-178.00
-102.69
-22.56
50.09
107.99
146.65
173.03
190.43
198.33
192.99
170.74
131.44
80.32
29.54
-7.33
-19.19
-4.20
32.63
81.82
133.24
178.84
213.34
233.41
236.41
221.46
188.26
139.86
81.94
20.52
-40.08
-97.94
-152.22
-201.09
-240.04
-263.76
-267.41
-249.06
-210.89
-158.53
-99.25
-40.14
12.98
56.49
88.44
108.90
119.58
123.20
122.73
120.63
118.47
116.88
115.96
115.40
114.50
112.35
107.83
100.20
89.46
76.60
63.41
51.71
42.59
35.86
30.20
24.05
16.81
9.46
4.31
3.82
9.11
19.14
31.02
41.22
46.95
46.79
40.51
28.47
11.33
-9.78
-32.75
-54.48
-71.52
-81.38
-83.56
-79.80
-73.01
-65.98
-60.31
-55.96
-51.71
-45.99
-37.40
-24.79
-7.19
16.22
45.64
80.02
116.70
151.77
181.13
201.81
213.14
216.73
215.65
213.30
212.17
213.56
217.73
224.45
233.32
243.71
254.46
263.66
268.68
266.87
256.52
237.79
212.95
185.73
159.77
136.96
116.63
96.21
72.77
44.84
13.27
-19.40
-50.34
-78.13
-103.29
-127.81
-154.02
-183.54
-217.10
-254.81
-296.61
-341.80
-388.46
-433.18
-471.84
-501.00
-519.44
-528.54
-531.19
-530.01
-525.73
-516.95
-501.22
-476.75
-443.50
-403.28
-358.79
-312.48
-265.91
-219.92
-175.14
-132.36
-92.39
-55.59
-21.37
11.73
45.60
81.57
119.43
157.10
191.13
217.98
235.41
243.11
242.49
235.80
225.22
212.52
199.16
186.58
176.17
168.73
164.07
160.90
157.39
152.02
144.19
134.39
123.63
112.88
102.74
93.35
84.65
76.67
69.58
63.55
58.70
54.93
52.00
49.53
47.23
44.91
42.50
40.05
37.62
35.22
32.79
30.24
27.53
24.74
22.01
19.56
17.52
15.84
14.30
12.64
10.73
8.76
7.17
6.48
6.84
7.79
8.40
7.65
5.11
1.32
-2.30
-4.08
-2.99
0.79
5.90
10.50
13.11
13.35
11.94
10.25
9.50
10.20
11.99
13.96
15.25
15.49
14.92
14.13
13.60
13.39
13.10
12.21
10.44
8.00
5.54
3.89
3.48
4.21
5.43
6.27
6.17
5.12
3.64
2.49
2.23
2.89
4.00
4.88
4.98
4.19
2.84
1.56
0.86
0.95
1.66
2.63
3.53
4.23
4.84
5.51
6.25
6.89
7.14
6.82
6.01
5.08
4.50
4.55
5.04
5.41
4.99
3.35
0.59
-2.68
-5.68
-7.81
-8.93
-9.42
-9.84
-10.59
-11.65
-12.59
-12.76
-11.71
-9.38
-6.24
-3.01
-0.36
1.43
2.54
3.42
4.46
5.78
7.18
8.37
9.17
9.77
10.58
12.01
14.15
16.59
18.62
19.49
18.81
16.78
14.10
11.65
10.14
9.77
10.19
10.76
10.86
10.27
9.20
8.15
7.54
7.43
7.46
7.08
5.86
3.80
1.32
-0.91
-2.40
-3.03
-3.12
-3.16
-3.48
-4.03
-4.48
-4.50
-4.03
-3.40
-3.11
-3.56
-4.76
-6.35
-7.76
-8.67
-9.10
-9.51
-10.42
-12.13
-14.48
-16.89
-18.59
-19.04
-18.19
-16.56
-14.99
-14.24
-14.57
-15.51
-16.20
-15.75
-13.88
-11.01
-8.11
-6.04
-5.14
-4.98
-4.71
-3.66
-1.76
0.41
2.03
2.58
2.24
1.70
1.78
2.85
4.58
6.15
6.78
6.21
4.88
3.63
3.26
4.03
5.46
6.62
6.60
4.99
2.13
-1.07
-3.65
-4.95
-5.04
-4.52
-4.23
-4.75
-6.23
-8.29
-10.31
-11.75
-12.39
-12.34
-11.89
-11.29
-10.56
-9.60
-8.31
-6.79
-5.34
-4.37
-4.10
-4.47
-5.05
-5.24
-4.62
-3.15
-1.31
0.15
0.56
-0.29
-1.99
-3.67
-4.41
-3.76
-1.95
0.21
1.80
2.31
1.94
1.47
1.71
3.00
4.92
6.59
7.13
6.27
4.43
2.53
1.38
1.27
1.86
2.42
2.30
1.25
-0.53
-2.56
-4.40
-5.84
-6.94
-7.86
-8.81
-9.82
-10.82
-11.56
-11.77
-11.22
-9.95
-8.24
-6.60
-5.53
-5.15
-5.21
-5.13
-4.44
-3.09
-1.56
-0.56
-0.54
-1.36
-2.39
-2.84
-2.32
-1.09
0.15
0.71
0.33
-0.60
-1.41
-1.50
-0.79
0.34
1.32
1.77
1.73
1.66
2.12
3.43
5.43
7.57
9.16
9.73
9.26
8.16
7.12
6.68
6.98
7.68
8.11
7.66
6.16
4.04
2.02
0.86
0.77
1.37
1.92
1.73
0.58
-1.13
-2.61
-3.14
-2.52
-1.22
-0.17
-0.25
-1.82
-4.47
-7.25
-9.12
-9.55
-8.71
-7.36
-6.32
-5.97
-6.07
-5.92
-4.92
-3.03
-0.78
0.99
1.74
1.48
0.82
0.56
1.23
2.79
4.68
6.14
6.69
6.33
5.57
5.07
5.33
6.34
7.63
8.56
8.70
8.07
7.07
6.21
5.84
5.87
5.97
5.78
5.20
4.48
4.02
4.05
4.46
4.77
4.39
2.97
0.63
-1.98
-3.98
-4.72
-4.13
-2.92
-2.31
-3.45
-6.90
-12.29
-18.42
-23.80
-27.28
-28.43
-27.56
-25.34
-22.42
-19.13
-15.50
-11.54
-7.47
-3.80
-1.17
0.02
-0.16
-1.06
-1.79
-1.58
-0.22
1.81
3.62
4.38
3.86
2.50
1.17
0.61
0.97
1.77
2.26
1.93
0.87
-0.34
-1.00
-0.80
-0.10
0.35
-0.18
-1.92
-4.50
-7.11
-9.01
-9.82
-9.72
-9.27
-9.04
-9.33
-10.06
-10.85
-11.28
-11.18
-10.74
-10.37
-10.48
-11.14
-11.97
-12.29
-11.42
-9.06
-5.50
-1.53
1.95
4.23
5.12
4.94
4.27
3.66
3.29
2.99
2.36
1.08
-0.83
-2.94
-4.57
-5.12
-4.36
-2.49
-0.01
2.55
4.94
7.14
9.30
11.48
13.53
15.12
15.86
15.55
14.27
12.37
10.36
8.67
7.52
6.83
6.32
5.70
4.96
4.40
4.57
5.88
8.24
10.97
13.12
13.91
13.23
11.72
10.34
9.75
9.95
10.26
9.89
8.47
6.32
4.23
2.99
2.83
3.36
3.88
3.83
3.16
2.22
1.53
1.37
1.56
1.53
0.68
-1.27
-4.06
-6.98
-9.19
-10.12
-9.83
-8.94
-8.35
-8.75
-10.25
-12.29
-13.95
-14.37
-13.25
-10.91
-8.15
-5.77
-4.24
-3.48
-2.98
-2.13
-0.65
1.26
2.99
3.82
3.45
2.10
0.46
-0.69
-0.91
-0.24
0.88
1.95
2.76
3.44
4.30
5.57
7.15
8.65
9.63
9.93
9.82
9.82
10.44
11.82
13.59
15.07
15.61
14.94
13.41
11.75
10.75
10.84
11.84
13.11
13.86
13.58
12.26
10.33
8.40
6.95
6.11
5.68
5.36
4.97
4.55
4.28
4.32
4.54
4.58
3.93
2.29
-0.15
-2.62
-4.10
-3.75
-1.41
2.23
5.90
8.32
8.82
7.60
5.55
3.72
2.70
2.33
1.90
0.62
-1.82
-5.11
-8.36
-10.72
-11.70
-11.41
-10.38
-9.24
-8.33
-7.61
-6.78
-5.52
-3.84
-1.99
-0.40
0.65
1.18
1.54
2.13
3.17
4.52
5.75
6.43
6.42
5.94
5.50
5.60
6.41
7.67
8.83
9.38
9.10
8.24
7.36
7.02
7.49
8.59
9.82
10.59
10.53
9.60
8.07
6.38
4.86
3.64
2.61
1.60
0.52
-0.46
-1.04
-0.94
-0.12
1.12
2.21
2.61
2.07
0.79
-0.63
-1.60
-1.81
-1.47
-1.19
-1.59
-3.01
-5.20
-7.50
-9.22
-10.01
-10.09
-10.09
-10.70
-12.26
-14.51
-16.73
-18.16
-18.39
-17.63
-16.51
-15.70
-15.46
-15.47
-15.14
-13.99
-12.07
-9.94
-8.33
-7.71
-7.90
-8.30
-8.16
-7.10
-5.27
-3.24
-1.62
-0.75
-0.53
-0.54
-0.37
0.17
0.87
1.35
1.26
0.59
-0.25
-0.56
0.36
2.77
6.37
10.35
13.72
15.77
16.34
15.76
14.67
13.57
12.66
11.77
10.63
9.07
7.20
5.39
4.03
3.30
2.97
2.58
1.65
0.05
-1.85
-3.34
-3.85
-3.25
-2.08
-1.26
-1.52
-3.01
-5.06
-6.63
-6.85
-5.56
-3.45
-1.59
-0.84
-1.31
-2.34
-2.94
-2.37
-0.60
1.70
3.60
4.43
4.11
3.17
2.39
2.34
3.05
4.10
4.89
5.03
4.56
3.97
3.83
4.48
5.77
7.14
7.92
7.63
6.33
4.51
2.82
1.76
1.40
1.42
1.36
0.95
0.20
-0.55
-0.99
-1.00
-0.83
-0.92
-1.63
-3.04
-4.84
-6.48
-7.48
-7.65
-7.26
-6.84
-6.95
-7.81
-9.16
-10.38
-10.80
-10.09
-8.47
-6.61
-5.24
-4.78
-5.05
-5.47
-5.38
-4.52
-3.19
-2.02
-1.63
-2.17
-3.25
-4.16
-4.30
-3.56
-2.35
-1.37
-1.15
-1.77
-2.78
-3.48
-3.34
-2.33
-0.88
0.36
0.90
0.80
0.56
0.93
2.41
4.99
8.07
10.87
12.75
13.58
13.75
13.85
14.32
15.13
15.83
15.83
14.86
13.10
11.15
9.67
9.00
8.97
8.99
8.42
6.95
4.76
2.38
0.42
-0.87
-1.64
-2.38
-3.55
-5.32
-7.48
-9.57
-11.16
-12.06
-12.42
-12.56
-12.75
-13.06
-13.31
-13.18
-12.46
-11.17
-9.57
-8.04
-6.87
-6.13
-5.55
-4.73
-3.35
-1.36
0.93
2.97
4.25
4.59
4.22
3.68
3.53
4.04
5.01
5.92
6.29
5.94
5.13
4.42
4.29
4.83
5.64
6.10
5.72
4.49
2.89
1.59
1.09
1.41
2.08
2.43
1.99
0.69
-1.15
-3.01
-4.49
-5.55
-6.46
-7.61
-9.22
-11.13
-12.74
-13.22
-12.01
-9.11
-5.21
-1.48
0.96
1.59
0.64
-1.11
-2.77
-3.85
-4.41
-4.84
-5.46
-6.20
-6.69
-6.50
-5.49
-3.99
-2.62
-1.89
-1.95
-2.47
-2.89
-2.74
-1.82
-0.38
1.20
2.49
3.29
3.68
3.90
4.21
4.76
5.48
6.15
6.55
6.54
6.22
5.84
5.67
5.83
6.17
6.38
6.13
5.27
3.98
2.67
1.74
1.37
1.40
1.44
1.11
0.33
-0.66
-1.45
-1.71
-1.49
-1.16
-1.25
-2.10
-3.64
-5.37
-6.66
-7.14
-6.93
-6.61
-6.88
-8.12
-10.17
-12.32
-13.82
-14.21
-13.64
-12.72
-12.08
-12.01
-12.28
-12.32
-11.63
-10.09
-8.06
-6.12
-4.78
-4.13
-3.87
-3.46
-2.46
-0.79
1.24
3.05
4.10
4.14
3.40
2.46
1.97
2.32
3.43
4.76
5.68
5.81
5.30
4.67
4.59
5.31
6.58
7.75
8.12
7.34
5.66
3.69
2.09
1.14
0.65
0.15
-0.76
-2.05
-3.29
-3.91
-3.61
-2.60
-1.52
-1.09
-1.67
-3.05
-4.62
-5.72
-6.05
-5.86
-5.75
-6.31
-7.75
-9.79
-11.84
-13.25
-13.65
-13.07
-11.90
-10.62
-9.55
-8.75
-7.94
-6.78
-5.05
-2.88
-0.74
0.79
1.33
0.98
0.27
-0.10
0.31
1.43
2.74
3.58
3.56
2.83
1.98
1.69
2.31
3.63
4.98
5.63
5.21
3.95
2.53
1.70
1.82
2.70
3.72
4.27
4.08
3.33
2.49
2.06
2.12
2.42
2.45
1.82
0.46
-1.30
-2.96
-4.10
-4.63
-4.78
-4.95
-5.54
-6.72
-8.34
-10.09
-11.55
-12.43
-12.64
-12.35
-11.83
-11.38
-11.13
-10.97
-10.65
-9.91
-8.70
-7.20
-5.76
-4.71
-4.14
-3.85
-3.46
-2.71
-1.66
-0.65
-0.10
-0.12
-0.36
-0.11
1.30
4.11
7.91
11.88
15.14
17.15
17.90
17.78
17.26
16.57
15.59
14.01
11.66
8.68
5.60
3.07
1.59
1.18
1.45
1.77
1.61
0.85
-0.27
-1.26
-1.80
-1.93
-2.06
-2.75
-4.29
-6.47
-8.64
-9.96
-9.88
-8.40
-6.09
-3.79
-2.17
-1.42
-1.21
-0.90
-0.06
1.33
2.78
3.67
3.61
2.74
1.62
0.97
1.18
2.14
3.29
3.97
3.86
3.16
2.50
2.52
3.49
5.07
6.47
6.94
6.17
4.47
2.63
1.43
1.21
1.69
2.17
1.96
0.76
-1.17
-3.21
-4.71
-5.41
-5.53
-5.64
-6.35
-7.89
-9.98
-12.01
-13.31
-13.57
-13.01
-12.17
-11.56
-11.33
-11.13
-10.38
-8.63
-5.94
-2.90
-0.31
1.20
1.61
1.46
1.50
2.31
3.92
5.83
7.33
7.89
7.47
6.53
5.77
5.74
6.52
7.71
8.71
9.04
8.68
8.03
7.69
8.04
9.00
10.02
10.44
9.85
8.37
6.56
5.10
4.37
4.22
4.14
3.56
2.19
0.18
-1.97
-3.74
-4.80
-5.29
-5.62
-6.22
-7.29
-8.57
-9.53
-9.55
-8.36
-6.19
-3.69
-1.65
-0.59
-0.48
-0.79
-0.82
-0.10
1.30
2.81
3.73
3.60
2.56
1.28
0.58
1.01
2.50
4.45
6.10
6.98
7.13
7.01
7.14
7.72
8.48
8.88
8.45
7.16
5.41
3.85
3.02
3.05
3.56
3.84
3.29
1.68
-0.64
-2.98
-4.61
-5.25
-5.18
-5.09
-5.65
-7.15
-9.32
-11.52
-13.14
-13.88
-13.86
-13.44
-12.90
-12.29
-11.42
-10.01
-7.97
-5.47
-2.92
-0.74
0.82
1.80
2.50
3.28
4.33
5.54
6.59
7.13
7.07
6.68
6.49
7.01
8.41
10.39
12.32
13.61
14.01
13.75
13.32
13.24
13.62
14.19
14.39
13.78
12.32
10.40
8.70
7.74
7.73
8.34
8.97
9.03
8.24
6.81
5.29
4.29
4.12
4.61
5.21
5.24
4.30
2.51
0.38
-1.44
-2.62
-3.31
-4.05
-5.41
-7.64
-10.47
-13.29
-15.53
-16.99
-17.93
-18.83
-19.99
-21.28
-22.09
-21.71
-19.73
-16.35
-12.32
-8.55
-5.75
-4.04
-3.06
-2.23
-1.08
0.49
2.20
3.68
4.64
5.15
5.52
6.21
7.44
9.13
10.83
12.03
12.40
12.04
11.45
11.25
11.85
13.16
14.66
15.66
15.65
14.63
13.08
11.67
10.92
10.92
11.26
11.37
10.78
9.44
7.75
6.28
5.48
5.39
5.59
5.50
4.68
3.11
1.19
-0.50
-1.51
-1.86
-1.95
-2.39
-3.62
-5.63
-7.97
-10.03
-11.33
-11.90
-12.14
-12.58
-13.49
-14.62
-15.30
-14.82
-12.87
-9.77
-6.32
-3.39
-1.49
-0.54
-0.01
0.74
2.05
3.75
5.33
6.24
6.29
5.77
5.28
5.45
6.54
8.30
10.11
11.32
11.60
11.07
10.23
9.65
9.62
9.91
9.98
9.23
7.39
4.78
2.09
0.09
-0.81
-0.84
-0.66
-0.99
-2.17
-3.98
-5.83
-7.08
-7.49
-7.36
-7.34
-8.04
-9.64
-11.81
-13.91
-15.34
-15.89
-15.84
-15.73
-15.98
-16.59
-17.10
-16.90
-15.55
-13.12
-10.16
-7.38
-5.31
-3.97
-2.99
-1.81
-0.14
1.94
3.93
5.27
5.65
5.22
4.56
4.35
5.05
6.64
8.63
10.34
11.27
11.33
10.87
10.44
10.45
10.96
11.60
11.85
11.34
10.04
8.31
6.67
5.50
4.81
4.29
3.46
2.02
0.03
-2.10
-3.84
-4.85
-5.22
-5.41
-5.97
-7.26
-9.17
-11.24
-12.91
-13.84
-14.10
-14.08
-14.16
-14.48
-14.74
-14.43
-13.10
-10.71
-7.69
-4.76
-2.59
-1.46
-1.14
-1.08
-0.65
0.48
2.20
4.06
5.49
6.15
6.13
5.86
5.89
6.51
7.58
8.60
9.06
8.76
8.03
7.52
7.78
8.93
10.47
11.58
11.59
10.37
8.38
6.40
5.10
4.62
4.60
4.36
3.34
1.45
-0.92
-3.12
-4.62
-5.26
-5.39
-5.61
-6.41
-7.92
-9.77
-11.35
-12.14
-11.98
-11.13
-10.06
-9.12
-8.29
-7.20
-5.44
-2.81
0.41
3.56
5.89
6.95
6.83
6.07
5.40
5.33
5.93
6.79
7.42
7.42
6.85
6.08
5.64
5.80
6.46
7.20
7.46
6.96
5.79
4.44
3.46
3.20
3.52
3.94
3.89
3.07
1.64
0.17
-0.74
-0.82
-0.35
-0.07
-0.73
-2.73
-5.85
-9.38
-12.46
-14.55
-15.59
-15.90
-15.89
-15.72
-15.20
-13.99
-11.81
-8.76
-5.35
-2.31
-0.27
0.54
0.43
0.06
0.09
0.86
2.25
3.79
4.96
5.50
5.59
5.64
6.08
7.00
8.09
8.82
8.76
7.84
6.45
5.16
4.45
4.35
4.44
4.10
2.91
0.87
-1.52
-3.61
-4.88
-5.31
-5.31
-5.50
-6.29
-7.71
-9.34
-10.61
-11.06
-10.63
-9.55
-8.26
-7.13
-6.23
-5.35
-4.12
-2.24
0.28
3.05
5.44
6.82
6.98
6.21
5.21
4.71
5.06
6.10
7.26
7.93
7.84
7.21
6.58
6.42
6.80
7.37
7.58
7.09
6.02
4.88
4.23
4.26
4.70
4.88
4.22
2.52
0.10
-2.36
-4.28
-5.36
-5.83
-6.15
-6.77
-7.83
-9.06
-9.91
-9.78
-8.40
-5.93
-3.00
-0.35
1.46
2.31
2.60
2.98
3.91
5.44
7.18
8.60
9.40
9.68
9.87
10.42
11.39
12.40
12.76
11.92
9.79
7.00
4.56
3.46
4.14
6.25
8.85
10.90
11.80
11.73
11.43
11.76
13.12
15.13
16.90
17.56
16.79
15.10
13.46
12.78
13.35
14.63
15.77
16.05
15.41
14.39
13.87
14.65
17.16
21.26
26.35
31.69
36.66
41.00
44.77
48.35
52.22
56.81
62.27
68.22
74.20
79.90
85.24
90.31
95.18
99.75
103.92
107.71
110.79
113.34
115.62
117.36
117.14
112.68
102.25
86.29
68.19
52.06
42.25
40.86
45.98
51.86
51.25
38.80
13.31
-22.29
-64.94
-110.92
-157.36
-202.68
-246.57
-289.70
-333.16
-378.08
-424.98
-475.41
-526.89
-572.54
-603.24
-611.47
-594.84
-556.89
-505.38
-431.99
-338.96
-236.17
-137.57
-54.67
7.04
47.13
68.35
75.53
74.60
68.47
60.28
52.55
46.83
43.61
42.29
42.07
42.86
45.55
49.59
55.53
64.86
76.78
90.49
104.59
117.67
129.15
139.61
149.17
158.85
170.25
184.96
204.19
227.67
253.46
278.24
297.99
308.45
307.32
295.00
274.26
249.16
223.15
198.31
175.46
155.07
137.72
124.55
116.53
113.60
114.40
116.21
115.62
109.16
93.74
67.26
29.70
-15.89
-63.12
-103.23
-127.73
-131.34
-113.89
-80.35
-38.80
2.54
37.65
63.46
79.29
85.59
83.23
73.69
59.49
44.28
31.91
24.98
23.41
24.04
21.70
11.48
-8.95
-37.96
-70.15
-98.56
-117.43
-124.50
-121.56
-113.25
-104.58
-98.71
-96.06
-94.99
-93.40
-90.28
-86.02
-81.74
-78.15
-74.99
-71.43
-67.03
-62.39
-58.77
-57.21
-57.43
-57.77
-56.06
-50.85
-42.29
-31.98
-22.14
-14.71
-10.91
-11.32
-16.17
-25.25
-37.69
-51.59
-64.36
-73.42
-77.35
-76.50
-73.09
-70.43
-71.86
-79.46
-93.29
-111.02
-128.39
-140.20
-141.79
-130.42
-106.19
-71.97
-32.41
7.69
45.00
78.68
110.46
143.75
181.92
226.51
276.12
326.46
371.57
405.81
425.75
431.08
424.43
410.11
392.62
375.40
360.33
347.83
337.07
326.54
314.45
299.29
280.25
257.63
232.84
208.23
186.36
169.20
157.26
149.18
142.10
132.74
118.62
99.15
75.59
50.34
25.86
3.88
-15.17
-31.33
-44.56
-54.59
-61.25
-64.99
-67.01
-68.71
-70.97
-74.01
-77.26
-79.65
-80.62
-80.64
-81.09
-83.86
-90.61
-102.02
-118.60
-139.90
-164.66
-190.95
-216.47
-238.64
-254.57
-261.14
-255.50
-238.03
-210.63
-176.19
-137.98
-100.00
-67.03
-44.10
-35.35
-42.94
-70.31
-116.24
-173.03
-227.34
-265.10
-277.79
-266.15
-239.17
-210.11
-198.01
-214.86
-261.41
-327.83
-400.08
-467.47
-525.67
-575.10
-617.67
-663.57
-720.01
-788.38
-863.73
-938.49
-1007.05
-1067.25
-1118.75
-1103.93
-985.79
-761.87
-471.27
-170.94
95.12
307.21
464.38
575.19
651.24
694.47
706.40
691.60
659.49
621.52
586.51
558.87
539.68
528.40
516.77
497.78
468.72
432.66
395.93
364.04
339.91
324.12
315.87
309.13
298.43
281.01
257.99
232.90
209.17
188.71
171.96
158.21
143.85
125.34
100.65
70.28
37.56
5.78
-22.10
-44.14
-59.58
-69.76
-76.88
-82.90
-89.07
-95.93
-103.95
-113.18
-122.51
-129.16
-128.99
-117.98
-94.46
-60.69
-22.59
12.20
37.60
51.41
55.56
54.35
51.86
50.05
48.67
46.45
42.68
38.14
34.62
33.69
35.72
39.67
43.61
45.59
44.61
40.98
36.18
32.12
30.49
31.89
35.60
39.93
42.95
43.37
40.92
36.55
31.99
28.82
27.99
29.73
33.62
38.88
44.00
46.76
44.37
34.19
14.88
-12.71
-45.38
-78.70
-108.34
-131.73
-148.59
-160.18
-168.34
-174.28
-177.91
-178.04
-173.59
-163.12
-146.56
-125.17
-100.83
-75.19
-48.88
-21.18
9.02
41.86
75.35
104.71
123.92
128.10
116.12
91.59
62.00
35.90
19.95
16.83
25.01
40.52
58.96
76.53
90.21
97.29
94.99
81.65
58.21
28.94
0.65
-19.97
-29.32
-28.19
-20.89
-12.83
-7.71
-6.38
-7.38
-8.67
-9.23
-9.44
-10.27
-12.18
-14.43
-15.47
-13.75
-8.82
-1.94
4.28
7.09
4.88
-2.12
-11.81
-21.19
-27.69
-30.06
-28.77
-25.31
-21.09
-16.73
-11.83
-5.37
3.61
14.72
27.02
39.22
49.93
58.07
63.20
65.53
65.79
64.93
63.64
62.22
60.46
58.00
54.59
50.35
45.69
41.08
36.80
32.77
28.67
24.05
18.55
12.10
5.08
-1.75
-7.57
-11.87
-14.67
-16.52
-18.22
-20.23
-22.45
-24.15
-24.52
-23.07
-20.02
-16.15
-12.30
-8.90
-5.90
-2.94
0.22
3.48
6.51
8.90
10.58
11.81
12.99
14.40
16.01
17.44
18.25
18.22
17.39
16.04
14.54
13.17
12.14
11.64
11.75
12.50
13.68
14.93
15.82
16.04
15.45
14.15
12.30
10.06
7.46
4.47
1.10
-2.44
-5.71
-8.16
-9.42
-9.57
-9.21
-9.17
-10.04
-11.73
-13.46
-14.22
-13.40
-11.22
-8.80
-7.52
-8.31
-11.10
-14.87
-18.08
-19.50
-18.57
-15.56
-11.27
-6.60
-2.32
1.12
3.61
5.25
6.22
6.73
6.87
6.64
6.07
5.28
4.53
4.10
4.12
4.45
4.72
4.47
3.52
2.06
0.60
-0.33
-0.35
0.47
1.74
2.87
3.35
2.83
1.29
-1.05
-3.82
-6.54
-8.83
-10.44
-11.31
-11.57
-11.51
-11.45
-11.76
-12.63
-13.93
-15.26
-15.94
-15.35
-13.26
-9.96
-6.26
-3.21
-1.65
-1.88
-3.59
-5.92
-7.88
-8.75
-8.35
-7.05
-5.56
-4.48
-3.92
-3.55
-2.73
-1.05
1.35
3.78
5.35
5.53
4.39
2.60
0.98
0.05
-0.19
-0.18
-0.35
-0.89
-1.65
-2.27
-2.50
-2.38
-2.21
-2.35
-3.02
-4.15
-5.56
-7.03
-8.48
-10.01
-11.75
-13.72
-15.75
-17.50
-18.57
-18.73
-17.97
-16.60
-15.10
-13.96
-13.46
-13.51
-13.74
-13.49
-12.18
-9.54
-5.81
-1.78
1.50
3.13
2.75
0.75
-1.95
-4.30
-5.65
-5.96
-5.72
-5.54
-5.80
-6.34
-6.72
-6.46
-5.45
-3.93
-2.39
-1.20
-0.42
0.17
0.87
1.72
2.43
2.58
1.93
0.67
-0.57
-0.94
0.07
2.43
5.45
8.13
9.70
9.90
9.02
7.70
6.41
5.24
3.92
2.10
-0.32
-3.03
-5.43
-7.01
-7.67
-7.84
-8.28
-9.50
-11.43
-13.29
-14.06
-13.06
-10.42
-7.13
-4.55
-3.64
-4.50
-6.29
-7.80
-8.10
-7.02
-5.10
-3.20
-1.86
-1.07
-0.38
0.69
2.25
3.91
4.96
4.85
3.57
1.68
0.06
-0.65
-0.34
0.40
0.77
0.14
-1.52
-3.66
-5.46
-6.28
-5.95
-4.90
-3.84
-3.43
-4.12
-5.95
-8.71
-11.89
-14.94
-17.28
-18.48
-18.39
-17.07
-14.82
-12.00
-8.94
-5.89
-3.07
-0.64
1.25
2.50
3.08
3.04
2.50
1.64
0.70
-0.06
-0.35
-0.02
0.89
2.10
3.21
3.87
3.94
3.57
3.12
2.97
3.31
4.07
5.03
5.99
6.90
7.82
8.80
9.72
10.35
10.37
9.69
8.39
6.81
5.22
3.77
2.39
0.95
-0.56
-2.02
-3.34
-4.51
-5.71
-7.09
-8.58
-9.84
-10.42
-10.09
-9.06
-7.96
-7.40
-7.66
-8.43
-8.99
-8.60
-6.94
-4.31
-1.49
0.62
1.42
0.78
-0.87
-2.86
-4.44
-5.11
-4.72
-3.51
-1.91
-0.41
0.71
1.45
1.96
2.46
3.01
3.52
3.88
4.08
4.27
4.67
5.42
6.43
7.34
7.72
7.29
6.10
4.51
3.04
2.17
2.08
2.67
3.59
4.41
4.81
4.70
4.11
3.24
2.17
0.91
-0.54
-2.11
-3.63
-4.88
-5.70
-6.15
-6.44
-6.79
-7.29
-7.86
-8.27
-8.36
-8.11
-7.62
-7.08
-6.60
-6.20
-5.72
-4.93
-3.66
-1.89
0.10
1.84
2.75
2.48
1.13
-0.66
-1.94
-1.94
-0.49
1.88
4.22
5.70
5.95
5.26
4.28
3.65
3.69
4.40
5.61
7.14
8.81
10.41
11.72
12.54
12.84
12.79
12.65
12.58
12.53
12.31
11.80
11.07
10.39
9.97
9.75
9.40
8.49
6.85
4.70
2.58
0.98
0.13
-0.13
-0.17
-0.34
-0.84
-1.61
-2.50
-3.31
-3.83
-3.98
-3.59
-2.58
-0.93
1.30
3.89
6.46
8.51
9.60
9.42
8.01
5.75
3.27
1.21
-0.06
-0.54
-0.59
-0.66
-1.01
-1.62
-2.17
-2.24
-1.58
-0.30
1.21
2.48
3.19
3.37
3.37
3.56
4.11
4.85
5.29
4.96
3.64
1.59
-0.64
-2.43
-3.48
-3.85
-3.95
-4.29
-5.25
-6.87
-8.89
-10.85
-12.32
-13.09
-13.26
-13.15
-13.06
-13.05
-12.88
-12.09
-10.27
-7.38
-3.85
-0.41
2.20
3.56
3.75
3.16
2.31
1.61
1.29
1.37
1.82
2.52
3.25
3.75
3.79
3.43
2.98
2.94
3.63
5.05
6.78
8.26
9.02
8.93
8.21
7.23
6.36
5.76
5.49
5.49
5.56
5.49
5.03
4.03
2.62
1.25
0.40
0.35
0.86
1.32
1.08
-0.16
-2.10
-4.05
-5.34
-5.70
-5.42
-5.09
-5.19
-5.77
-6.50
-6.88
-6.59
-5.68
-4.43
-3.13
-1.90
-0.68
0.61
1.90
2.95
3.40
3.02
1.82
0.07
-1.93
-3.97
-6.03
-8.22
-10.44
-12.32
-13.20
-12.50
-10.03
-6.24
-2.06
1.53
3.95
5.20
5.81
6.34
7.13
8.11
8.99
9.47
9.46
9.00
8.13
6.83
5.06
2.87
0.54
-1.50
-2.87
-3.40
-3.21
-2.58
-1.85
-1.25
-0.86
-0.70
-0.81
-1.23
-2.00
-3.06
-4.18
-5.06
-5.41
-5.12
-4.31
-3.29
-2.43
-2.02
-2.19
-2.82
-3.73
-4.70
-5.55
-6.21
-6.59
-6.62
-6.26
-5.50
-4.46
-3.31
-2.21
-1.19
-0.13
1.13
2.75
4.67
6.68
8.46
9.69
10.18
9.94
9.12
7.92
6.59
5.30
4.22
3.44
2.97
2.69
2.40
1.92
1.20
0.33
-0.54
-1.28
-1.93
-2.66
-3.66
-4.92
-6.16
-6.89
-6.73
-5.66
-4.07
-2.63
-1.90
-2.05
-2.84
-3.73
-4.25
-4.23
-3.82
-3.33
-2.97
-2.80
-2.69
-2.53
-2.39
-2.45
-2.90
-3.72
-4.68
-5.42
-5.58
-5.01
-3.78
-2.16
-0.53
0.88
2.09
3.30
4.78
6.67
8.77
10.58
11.50
11.18
9.73
7.76
6.03
5.11
4.95
5.02
4.57
3.19
1.03
-1.20
-2.74
-3.33
-3.35
-3.65
-4.97
-7.36
-10.17
-12.41
-13.29
-12.83
-11.72
-10.83
-10.63
-10.88
-10.83
-9.81
-7.74
-5.20
-3.08
-2.00
-2.03
-2.70
-3.33
-3.43
-2.86
-1.74
-0.39
0.92
1.88
2.32
2.22
1.71
1.11
0.76
0.90
1.52
2.48
3.64
4.93
6.34
7.78
9.02
9.64
9.25
7.75
5.39
2.72
0.39
-1.12
-1.67
-1.44
-0.84
-0.42
-0.66
-1.82
-3.87
-6.37
-8.65
-10.05
-10.26
-9.46
-8.20
-7.12
-6.59
-6.60
-6.89
-7.14
-7.34
-7.59
-7.98
-8.41
-8.53
-8.00
-6.77
-5.13
-3.53
-2.30
-1.37
-0.44
0.74
2.15
3.48
4.39
4.81
5.00
5.43
6.44
7.99
9.75
11.31
12.39
13.00
13.35
13.76
14.40
15.36
16.52
17.66
18.50
18.77
18.30
17.17
15.59
13.82
12.06
10.30
8.47
6.45
4.24
1.90
-0.49
-2.80
-4.98
-6.90
-8.43
-9.43
-9.80
-9.54
-8.75
-7.61
-6.41
-5.47
-5.05
-5.28
-5.98
-6.66
-6.74
-5.72
-3.55
-0.60
2.42
4.89
6.43
7.11
7.27
7.22
7.06
6.69
5.87
4.58
3.06
1.82
1.28
1.56
2.31
2.96
2.99
2.24
1.00
-0.28
-1.22
-1.72
-1.96
-2.22
-2.69
-3.36
-4.13
-4.88
-5.64
-6.55
-7.79
-9.44
-11.45
-13.60
-15.52
-16.79
-17.02
-16.11
-14.29
-12.03
-9.85
-8.01
-6.34
-4.42
-1.83
1.44
4.95
7.93
9.75
10.25
9.90
9.45
9.51
10.10
10.63
10.28
8.55
5.70
2.60
0.34
-0.41
0.29
1.72
3.02
3.69
3.79
3.83
4.35
5.52
7.08
8.49
9.28
9.12
8.02
6.16
3.87
1.53
-0.56
-2.27
-3.78
-5.47
-7.69
-10.34
-12.79
-14.05
-13.36
-10.66
-6.68
-2.64
0.47
2.37
3.51
4.72
6.62
9.36
12.62
15.87
18.65
20.64
21.59
21.35
19.82
17.24
14.17
11.45
9.84
9.72
10.89
12.67
14.21
14.77
13.96
11.77
8.56
4.81
1.04
-2.37
-5.26
-7.62
-9.63
-11.48
-13.35
-15.30
-17.29
-19.23
-21.02
-22.54
-23.68
-24.29
-24.18
-23.26
-21.55
-19.34
-17.02
-14.92
-13.19
-11.63
-9.92
-7.84
-5.55
-3.46
-2.09
-1.64
-1.88
-2.22
-2.04
-1.11
0.39
1.99
3.28
4.15
4.77
5.43
6.19
6.95
7.52
7.86
8.12
8.59
9.33
10.10
10.41
9.86
8.54
6.97
5.87
5.67
6.19
6.71
6.40
4.88
2.38
-0.36
-2.69
-4.31
-5.45
-6.56
-7.89
-9.39
-10.74
-11.69
-12.19
-12.40
-12.48
-12.36
-11.74
-10.25
-7.74
-4.45
-0.97
2.03
4.09
5.26
6.03
7.07
8.89
11.49
14.31
16.51
17.43
17.01
15.91
15.14
15.52
17.17
19.43
21.23
21.67
20.56
18.43
16.20
14.56
13.66
13.11
12.39
11.27
9.92
8.76
8.09
7.89
7.74
7.18
5.94
4.07
1.92
-0.15
-1.94
-3.52
-5.09
-6.88
-8.92
-10.98
-12.66
-13.56
-13.44
-12.37
-10.65
-8.75
-7.10
-5.97
-5.44
-5.40
-5.66
-6.02
-6.30
-6.30
-5.91
-5.13
-4.04
-2.89
-1.96
-1.46
-1.45
-1.88
-2.52
-3.12
-3.41
-3.17
-2.30
-0.79
1.27
3.70
6.24
8.59
10.48
11.74
12.40
12.53
